RMS
0.023801
0.019036
0.018966
0.070573
0.078038
0.061524
0.05771
0.050291
0.045676
0.042516
0.033857
0.030641
0.025524
0.017627
0.017699
0.021729
0.027798
0.03161
0.033475
0.032335
0.031121
0.02441
0.017888
0.010413
0.011875
0.014698
0.020185
0.024217
0.024257
0.027076
0.038729
0.03561
0.023954
0.015259
0.01313
0.020439
0.042309
0.055947
0.048342
0.040141
0.033943
0.027912
0.021453
0.013958
0.011389
0.0082692
0.011386
0.018728
0.022122
0.023154
0.021564
0.017429
0.011355
0.017085
0.025207
0.030583
0.032162
0.03154
0.033012
0.032395
0.0304
0.028297
0.024932
0.019105
0.014107
0.016028
0.021231
0.026011
0.027564
0.027462
0.025318
0.021413
0.016607
0.011345
0.0093382
0.014367
0.02054
0.024938
0.026862
0.027187
0.025558
0.02181
0.017884
0.012083
0.0096556
0.014413
0.020714
0.025995
0.027708
0.026697
0.02459
0.021199
0.017082
0.010903
0.0090217
0.013916
0.019606
0.024839
0.027901
0.028616
0.026758
0.022473
0.013098
0.039072
0.046295
0.041043
0.039344
0.0359
0.031668
0.025304
0.02642
0.030161
0.025795
0.017633
0.013762
0.018484
0.029447
0.022039
0.021967
0.02508
0.022136
0.022084
0.025148
0.018475
0.015387
0.01719
0.021039
0.025225
0.024239
0.019074
0.035977
0.043858
0.031368
0.022938
0.012309
0.021158
0.047986
0.054819
0.043704
0.03823
0.031775
0.027922
0.027521
0.024276
0.013956
0.01356
0.015147
0.023196
0.024833
0.018642
0.0198
0.024948
0.015315
0.010872
0.019126
0.030329
0.051905
0.06803
0.060337
0.051998
0.043855
0.0354
0.028474
0.020092
0.012867
0.01346
0.018426
0.024358
0.027656
0.028364
0.028139
0.025449
0.023474
0.016492
0.0096478
0.013041
0.019106
0.023807
0.025705
0.025957
0.025467
0.02235
0.017268
0.01331
0.010343
0.012765
0.018779
0.025638
0.029464
0.029378
0.028282
0.02523
0.020704
0.01436
0.0082459
0.011469
0.017243
0.023565
0.026698
0.026577
0.025595
0.022307
0.01251
0.05878
0.073066
0.05791
0.054206
0.048407
0.044043
0.043781
0.037468
0.032816
0.029519
0.021161
0.015288
0.015982
0.020599
0.023705
0.027975
0.029448
0.027743
0.027457
0.025047
0.018685
0.012297
0.014693
0.018249
0.021504
0.023869
0.026784
0.039527
0.040577
0.029817
0.022209
0.014827
0.01825
0.036573
0.053352
0.049584
0.042432
0.037263
0.031348
0.025209
0.019678
0.012118
0.011375
0.015209
0.017352
0.022689
0.025317
0.023702
0.020544
0.013397
0.0092969
0.017816
0.025252
0.028086
0.028593
0.031125
0.031166
0.029101
0.026334
0.02241
0.017512
0.011181
0.011142
0.014977
0.020714
0.025166
0.026771
0.0265
0.024439
0.02089
0.015736
0.0089874
0.0098942
0.015548
0.021786
0.026119
0.027351
0.026613
0.02407
0.020357
0.015906
0.010047
0.010338
0.014896
0.020397
0.025304
0.027035
0.026628
0.024679
0.020428
0.01526
0.0090481
0.0097477
0.014594
0.020508
0.02549
0.027188
0.026346
0.023652
0.012072
0.031882
0.038483
0.030927
0.032856
0.033442
0.033018
0.026944
0.026556
0.033699
0.033298
0.026148
0.016447
0.01569
0.02633
0.01933
0.02129
0.026011
0.022998
0.024311
0.027208
0.023769
0.011979
0.013949
0.01908
0.023911
0.023899
0.018246
0.033805
0.046819
0.035825
0.029651
0.017412
0.017101
0.042535
0.052157
0.042152
0.037004
0.033407
0.031041
0.029445
0.029602
0.014454
0.009858
0.010703
0.019119
0.02309
0.024294
0.023834
0.029404
0.024997
0.020323
0.017274
0.028241
0.046448
0.065952
0.06131
0.053438
0.0465
0.039243
0.032939
0.025892
0.0187
0.016533
0.016659
0.020407
0.025207
0.027373
0.027264
0.025748
0.022811
0.018964
0.012187
0.008532
0.012085
0.017507
0.023226
0.025652
0.025077
0.023303
0.020996
0.01831
0.012331
0.0099405
0.014708
0.021347
0.026872
0.028775
0.028611
0.026911
0.023588
0.019092
0.013056
0.010087
0.013247
0.018563
0.023785
0.025994
0.025879
0.023623
0.011025
0.051541
0.068135
0.053344
0.050432
0.043989
0.041308
0.043029
0.037195
0.033858
0.032456
0.025069
0.018059
0.013746
0.016993
0.019747
0.025571
0.029196
0.029648
0.030878
0.028249
0.021614
0.013072
0.0092741
0.01375
0.019131
0.023421
0.026393
0.03989
0.043071
0.033482
0.027025
0.018104
0.014504
0.028678
0.048382
0.048039
0.042841
0.038477
0.033679
0.028251
0.023953
0.017091
0.012016
0.008954
0.012673
0.019457
0.023545
0.025178
0.023232
0.015898
0.0075878
0.010489
0.018878
0.024001
0.023984
0.027552
0.030182
0.029886
0.028396
0.025064
0.021072
0.015464
0.0096881
0.01303
0.019044
0.02415
0.027205
0.027594
0.026291
0.023232
0.019314
0.01344
0.0085995
0.0114
0.017231
0.023146
0.026433
0.027276
0.027269
0.024665
0.020185
0.01441
0.0091348
0.011421
0.016559
0.022419
0.026141
0.026686
0.025997
0.024591
0.021949
0.015432
0.010307
0.013355
0.018136
0.024535
0.029038
0.030477
0.028749
0.019226
0.026897
0.031368
0.024476
0.028492
0.028661
0.027511
0.025422
0.027012
0.034448
0.032592
0.02542
0.018267
0.01207
0.021934
0.016494
0.01659
0.024876
0.024521
0.026755
0.030626
0.029048
0.013387
0.010873
0.013574
0.01936
0.021285
0.017053
0.032144
0.048707
0.037452
0.03139
0.021902
0.013374
0.035204
0.048695
0.039795
0.036477
0.033444
0.031814
0.031074
0.033463
0.020777
0.013773
0.013451
0.014688
0.01875
0.018877
0.017377
0.027084
0.02229
0.010864
0.0071659
0.015803
0.037117
0.058826
0.056802
0.051559
0.046534
0.040658
0.03726
0.032128
0.024563
0.017197
0.013907
0.016509
0.021983
0.026145
0.027356
0.027223
0.02561
0.02212
0.017634
0.011421
0.0099979
0.01528
0.021985
0.026407
0.026331
0.025459
0.023758
0.020568
0.015335
0.0092277
0.0099503
0.015426
0.021409
0.02787
0.030866
0.029244
0.027714
0.02538
0.023089
0.020066
0.013976
0.017827
0.022078
0.026131
0.027914
0.026908
0.017793
0.043596
0.06537
0.049875
0.045816
0.0422
0.038193
0.041341
0.038277
0.034612
0.034298
0.027268
0.021555
0.01522
0.013854
0.014567
0.019666
0.026891
0.027763
0.028875
0.027283
0.022724
0.014801
0.0098443
0.0095961
0.01506
0.019016
0.02218
0.036622
0.04433
0.036253
0.029365
0.020838
0.01272
0.022207
0.043184
0.044223
0.039395
0.037026
0.034535
0.029794
0.026622
0.021658
0.017421
0.014096
0.010283
0.015509
0.022165
0.023805
0.023378
0.01898
0.012032
0.012087
0.015144
0.020603
0.022448
0.026183
0.029826
0.032208
0.031253
0.028783
0.024075
0.019394
0.013295
0.009791
0.013247
0.018542
0.024145
0.026974
0.026865
0.024969
0.021367
0.017326
0.012163
0.0094977
0.013902
0.019168
0.024439
0.026837
0.026422
0.025254
0.023079
0.019749
0.01391
0.010031
0.013366
0.019068
0.024365
0.026619
0.027194
0.026807
0.024478
0.02073
0.014215
0.0085774
0.012704
0.017552
0.023431
0.026778
0.02633
0.018156
0.020424
0.029904
0.019232
0.021388
0.025471
0.024349
0.023742
0.02535
0.034641
0.035109
0.028227
0.022459
0.016228
0.016516
0.013907
0.011671
0.020812
0.023622
0.027129
0.030592
0.032252
0.016869
0.010181
0.0091724
0.014478
0.018379
0.017063
0.027425
0.048038
0.041945
0.037146
0.028892
0.016968
0.027251
0.044742
0.037299
0.033921
0.033494
0.032403
0.032603
0.036899
0.026322
0.017809
0.014259
0.010269
0.014568
0.016648
0.01589
0.026797
0.027038
0.015045
0.009759
0.012921
0.029694
0.053881
0.054406
0.049254
0.045957
0.040807
0.037235
0.031859
0.026633
0.020867
0.013945
0.013717
0.017863
0.02405
0.02831
0.028638
0.028905
0.027248
0.022773
0.016278
0.0093861
0.010333
0.015639
0.021654
0.025428
0.026333
0.025424
0.022484
0.01816
0.013724
0.0095763
0.011624
0.016593
0.022242
0.026511
0.028021
0.027472
0.025171
0.021342
0.016109
0.011803
0.013692
0.017817
0.022762
0.025201
0.026208
0.019286
0.032672
0.061763
0.04458
0.038058
0.037527
0.032686
0.037321
0.038591
0.035823
0.03674
0.031632
0.025621
0.021536
0.015953
0.015293
0.016958
0.024471
0.027181
0.028828
0.028835
0.027187
0.019996
0.01412
0.0090469
0.0087849
0.013562
0.016703
0.03144
0.043832
0.037694
0.032428
0.025162
0.017294
0.017195
0.03609
0.039329
0.035933
0.037199
0.037925
0.034107
0.030873
0.026063
0.022758
0.020451
0.015872
0.017904
0.022371
0.028201
0.030838
0.029139
0.020116
0.011599
0.0075073
0.010784
0.015269
0.018855
0.023633
0.027508
0.029114
0.028405
0.025994
0.021376
0.016745
0.016264
0.017436
0.014903
0.021075
0.025794
0.027095
0.027282
0.025199
0.021734
0.017071
0.010549
0.0084807
0.013259
0.019378
0.025103
0.027425
0.026696
0.024553
0.02165
0.019053
0.012835
0.011838
0.015208
0.01981
0.024904
0.027177
0.027015
0.025105
0.021991
0.017705
0.014451
0.013733
0.014469
0.019945
0.024059
0.025609
0.020559
0.014906
0.025925
0.015456
0.015358
0.020762
0.020867
0.021974
0.024297
0.034719
0.038454
0.034648
0.030167
0.023421
0.014245
0.012825
0.010901
0.018377
0.02157
0.026172
0.030513
0.035533
0.021785
0.010912
0.0081414
0.0092312
0.013458
0.013606
0.022854
0.047182
0.045976
0.038886
0.032104
0.020778
0.020913
0.040127
0.034712
0.031294
0.030725
0.030553
0.031302
0.036502
0.030066
0.018341
0.016853
0.010848
0.010876
0.014633
0.015623
0.026236
0.028901
0.018522
0.011592
0.0088959
0.020472
0.045416
0.051884
0.046014
0.04414
0.040531
0.037209
0.033441
0.028458
0.023155
0.016439
0.011494
0.013535
0.018863
0.024773
0.028134
0.028662
0.027331
0.024196
0.020163
0.014115
0.0088671
0.011666
0.017541
0.023811
0.026743
0.026147
0.024509
0.021576
0.018417
0.013882
0.010075
0.014491
0.019488
0.026382
0.031651
0.031467
0.027417
0.023955
0.020081
0.014465
0.0091472
0.012189
0.017171
0.022516
0.025656
0.021137
0.02864
0.058519
0.043131
0.03325
0.033392
0.029435
0.032076
0.034336
0.032791
0.03484
0.032705
0.027242
0.02312
0.017131
0.011973
0.014482
0.021556
0.026399
0.029291
0.030743
0.029031
0.022277
0.017583
0.01563
0.015654
0.019408
0.016319
0.027981
0.042954
0.039207
0.033638
0.028408
0.021195
0.014321
0.027615
0.035571
0.032943
0.034059
0.03487
0.034281
0.032159
0.028202
0.024835
0.023636
0.016337
0.011474
0.014842
0.020304
0.024329
0.022564
0.01558
0.010147
0.010018
0.012795
0.013403
0.014978
0.019562
0.024505
0.028498
0.029794
0.028621
0.02567
0.021268
0.016141
0.011946
0.013335
0.017063
0.022473
0.026286
0.027187
0.026571
0.024481
0.020714
0.015384
0.0091746
0.01021
0.015145
0.020479
0.025033
0.026709
0.026252
0.024285
0.020497
0.015736
0.01058
0.011109
0.015546
0.021301
0.025945
0.027502
0.026858
0.024749
0.021159
0.016941
0.014872
0.016123
0.017476
0.02267
0.027179
0.023714
0.015537
0.024039
0.015726
0.013396
0.016473
0.016895
0.017505
0.017899
0.025481
0.034549
0.034397
0.028757
0.022607
0.015499
0.014007
0.010707
0.011619
0.019139
0.022437
0.02759
0.03354
0.032144
0.017154
0.012578
0.01345
0.015044
0.015873
0.015701
0.034592
0.049044
0.041166
0.035125
0.026879
0.019063
0.04382
0.058747
0.029899
0.021244
0.022346
0.023054
0.026087
0.028078
0.032603
0.022227
0.012951
0.010215
0.01323
0.01759
0.017318
0.015787
0.016768
0.011192
0.0124
0.012342
0.013542
0.034936
0.054037
0.053027
0.048326
0.044023
0.038147
0.033486
0.027979
0.021991
0.015394
0.012224
0.015215
0.020448
0.025334
0.027647
0.0275
0.025597
0.022411
0.01819
0.012098
0.0084537
0.011973
0.017671
0.023118
0.025673
0.025996
0.024655
0.022256
0.019626
0.016191
0.017755
0.020708
0.022056
0.025691
0.027556
0.027374
0.025911
0.023108
0.018634
0.012805
0.010439
0.015194
0.020476
0.024478
0.014182
0.024953
0.022665
0.014881
0.012522
0.01612
0.022796
0.023662
0.026892
0.030368
0.031354
0.02995
0.027579
0.023942
0.01904
0.012673
0.012884
0.019972
0.024918
0.027786
0.02845
0.027654
0.025419
0.022038
0.017623
0.012746
0.011343
0.014951
0.019539
0.024701
0.027298
0.02773
0.026129
0.022591
0.018778
0.01356
0.013329
0.018969
0.022938
0.029655
0.035309
0.036795
0.032218
0.028434
0.026237
0.02946
0.016478
0.024184
0.029004
0.031331
0.02454
0.012672
0.011365
0.0095708
0.020042
0.010907
0.0085596
0.013792
0.022991
0.034824
0.027795
0.01831
0.019917
0.019713
0.01606
0.013164
0.01036
0.031624
0.037489
0.036975
0.037379
0.03012
0.018316
0.018375
0.012159
0.011
0.016048
0.018027
0.022217
0.035548
0.037307
0.026145
0.030752
0.028866
0.021348
0.013795
0.010391
0.013168
0.022987
0.027463
0.032079
0.025595
0.016125
0.017878
0.025536
0.022071
0.023579
0.023506
0.026491
0.029145
0.017036
0.042471
0.045713
0.026655
0.021367
0.016548
0.018938
0.025761
0.027029
0.033868
0.037051
0.031728
0.029621
0.025252
0.019592
0.015883
0.013025
0.016413
0.019025
0.024676
0.029214
0.028685
0.026221
0.024844
0.020799
0.015284
0.011066
0.015018
0.032709
0.040018
0.036449
0.03664
0.031789
0.025015
0.016934
0.02358
0.025068
0.02365
0.025695
0.030335
0.032759
0.032705
0.030503
0.031096
0.028537
0.020264
0.0122
0.01181
0.015243
0.020136
0.019897
0.014122
0.0097173
0.0073678
0.0073472
0.010373
0.011173
0.01413
0.018803
0.02441
0.026649
0.026805
0.026252
0.023588
0.019846
0.013693
0.0096924
0.012702
0.017396
0.023667
0.027273
0.027645
0.02657
0.024034
0.020167
0.016555
0.01264
0.011926
0.016337
0.022411
0.026529
0.027596
0.026357
0.023027
0.018631
0.01313
0.0079627
0.011442
0.016867
0.022241
0.026194
0.027062
0.026039
0.023473
0.019577
0.014073
0.0091945
0.013208
0.017419
0.022424
0.016075
0.020902
0.018807
0.011485
0.010703
0.010442
0.0093075
0.010219
0.018458
0.03231
0.036107
0.033385
0.030891
0.027584
0.014526
0.015884
0.013146
0.010615
0.014759
0.024027
0.034021
0.035631
0.020845
0.017805
0.01652
0.012944
0.010533
0.010895
0.025818
0.044224
0.042144
0.042303
0.034035
0.022764
0.017964
0.023006
0.016391
0.020028
0.022049
0.02572
0.033211
0.04147
0.030372
0.027685
0.029006
0.022271
0.012745
0.0080604
0.01075
0.025007
0.024006
0.016905
0.01255
0.008371
0.016144
0.032895
0.031671
0.03071
0.030468
0.03147
0.033845
0.033224
0.031021
0.027515
0.022966
0.017825
0.011843
0.012247
0.016644
0.02283
0.027916
0.029278
0.028508
0.02617
0.022521
0.017512
0.010718
0.008901
0.013777
0.019192
0.023653
0.025569
0.026014
0.024223
0.02163
0.016741
0.0095717
0.0098823
0.015266
0.021132
0.025902
0.027755
0.02744
0.025625
0.021995
0.017359
0.012119
0.01075
0.0153
0.020547
0.015075
0.041757
0.050524
0.030484
0.023399
0.017915
0.016531
0.022252
0.023463
0.02742
0.034461
0.032126
0.030401
0.028191
0.022373
0.019636
0.013549
0.011822
0.014926
0.021935
0.027691
0.028117
0.023674
0.023088
0.021741
0.017176
0.010948
0.010973
0.026784
0.036051
0.034588
0.035983
0.032215
0.028066
0.018427
0.018857
0.018305
0.017978
0.021469
0.026292
0.029522
0.031692
0.030604
0.032426
0.032869
0.026922
0.016136
0.010689
0.013156
0.017391
0.019067
0.014509
0.012908
0.012241
0.013333
0.012801
0.009103
0.0097734
0.01539
0.020402
0.024816
0.027073
0.026691
0.024779
0.021676
0.017857
0.012955
0.0091213
0.013025
0.019375
0.024931
0.02757
0.027431
0.025606
0.022151
0.018092
0.01237
0.0089868
0.012674
0.017694
0.023338
0.026557
0.026981
0.025986
0.023261
0.01959
0.015247
0.011689
0.012841
0.017423
0.022739
0.02624
0.027473
0.026829
0.023368
0.018652
0.013422
0.010915
0.013488
0.018124
0.015331
0.015266
0.01747
0.010186
0.010335
0.010068
0.0090941
0.0064692
0.011455
0.025847
0.032136
0.032695
0.031266
0.027932
0.018813
0.021653
0.021499
0.013588
0.017964
0.023899
0.03327
0.038896
0.026455
0.020883
0.019594
0.017445
0.015972
0.013391
0.018382
0.038483
0.036604
0.037689
0.033339
0.025227
0.015418
0.017607
0.0094221
0.010949
0.014337
0.020318
0.027814
0.038509
0.030675
0.028208
0.032002
0.026125
0.018245
0.013257
0.011289
0.019867
0.022079
0.016293
0.01289
0.010177
0.011615
0.028337
0.026369
0.024901
0.026573
0.027466
0.031062
0.032646
0.032539
0.030326
0.026247
0.02147
0.015588
0.01024
0.011995
0.017281
0.023397
0.027855
0.029016
0.028242
0.026109
0.022175
0.016642
0.010476
0.010554
0.015369
0.020801
0.025088
0.026439
0.025536
0.023094
0.019575
0.015001
0.010343
0.012625
0.018544
0.024329
0.02724
0.027934
0.028285
0.02938
0.025248
0.018697
0.012653
0.014604
0.018424
0.01275
0.035949
0.051999
0.030722
0.020983
0.014664
0.0096689
0.015557
0.019034
0.02184
0.029823
0.031234
0.030455
0.02957
0.024154
0.022748
0.018051
0.011354
0.011421
0.016604
0.023082
0.027356
0.025254
0.025256
0.024498
0.021491
0.018647
0.015627
0.022002
0.031722
0.031124
0.034324
0.031544
0.025588
0.01618
0.017292
0.016122
0.012425
0.015654
0.021201
0.02771
0.031095
0.031468
0.034363
0.03732
0.032134
0.022569
0.013545
0.010195
0.012338
0.015169
0.012867
0.0099466
0.0097004
0.01095
0.015387
0.015667
0.012423
0.01294
0.016906
0.022091
0.026956
0.02919
0.028729
0.027665
0.023892
0.018315
0.012218
0.011225
0.015521
0.020739
0.025994
0.028526
0.028124
0.025554
0.021438
0.016553
0.010657
0.0088228
0.013171
0.018976
0.024402
0.027204
0.027142
0.02552
0.02303
0.021053
0.018775
0.017513
0.0201
0.02484
0.029712
0.031019
0.030865
0.027399
0.02316
0.018139
0.013975
0.012632
0.015236
0.012238
0.01513
0.018608
0.0084492
0.0071034
0.0081576
0.010298
0.010292
0.0088826
0.020654
0.028649
0.030784
0.030867
0.027368
0.018796
0.022002
0.02895
0.02084
0.013051
0.016523
0.025565
0.033921
0.027609
0.023122
0.021913
0.018559
0.016637
0.018525
0.014605
0.034009
0.034359
0.036289
0.034785
0.026543
0.014472
0.01479
0.0055542
0.0046373
0.0092579
0.016425
0.024298
0.037642
0.033173
0.027484
0.032442
0.028682
0.022381
0.017407
0.014744
0.015402
0.018226
0.013512
0.013215
0.011254
0.0087206
0.023677
0.024013
0.019526
0.021782
0.023491
0.02683
0.030082
0.031289
0.030531
0.028245
0.024414
0.01969
0.014174
0.011684
0.014669
0.019271
0.025019
0.028758
0.029182
0.027158
0.024033
0.020494
0.015698
0.010665
0.011661
0.016124
0.021326
0.025607
0.028321
0.030019
0.026053
0.020701
0.016824
0.015465
0.021317
0.028983
0.028458
0.028741
0.028715
0.027366
0.024055
0.020186
0.015164
0.0094533
0.011823
0.010053
0.035994
0.05235
0.03089
0.018007
0.013316
0.010167
0.010157
0.014651
0.017434
0.025664
0.02735
0.029511
0.030853
0.027706
0.027007
0.023444
0.017146
0.013063
0.016161
0.022235
0.027968
0.027549
0.029126
0.02866
0.025529
0.022399
0.02217
0.014597
0.025703
0.034445
0.033107
0.034742
0.031357
0.026094
0.01902
0.017924
0.017705
0.013952
0.017361
0.021886
0.027169
0.030873
0.030149
0.032733
0.034397
0.029227
0.020236
0.012767
0.012001
0.012234
0.010087
0.01289
0.01588
0.012956
0.0131
0.01525
0.01273
0.0079487
0.010936
0.016238
0.021878
0.025855
0.027211
0.026458
0.024169
0.020444
0.015246
0.010663
0.011575
0.01653
0.022266
0.026706
0.029229
0.028245
0.024536
0.020511
0.016693
0.01469
0.015354
0.016587
0.022358
0.027507
0.030618
0.030985
0.027392
0.022314
0.0167
0.011522
0.011521
0.014849
0.020695
0.02521
0.026466
0.025602
0.024
0.021077
0.016723
0.010459
0.0098963
0.0085007
0.015593
0.020795
0.010991
0.012283
0.01508
0.015582
0.015211
0.013468
0.018333
0.02802
0.029812
0.030244
0.02837
0.019553
0.020102
0.025677
0.018461
0.012505
0.011254
0.020605
0.031661
0.024277
0.019543
0.02217
0.021416
0.020132
0.022223
0.016667
0.027627
0.028956
0.031128
0.032381
0.026063
0.015693
0.012463
0.0052873
0.0064838
0.005948
0.010694
0.020226
0.033991
0.032299
0.029073
0.034497
0.031201
0.025375
0.022842
0.02078
0.014013
0.01474
0.011081
0.011937
0.012704
0.010548
0.022745
0.02176
0.015071
0.014627
0.017401
0.02165
0.025574
0.028871
0.029944
0.028953
0.026822
0.02358
0.019425
0.014277
0.01273
0.016666
0.021944
0.027979
0.030991
0.029521
0.027314
0.024412
0.019871
0.014534
0.01215
0.015104
0.019706
0.024388
0.026991
0.027013
0.02563
0.021338
0.017426
0.016218
0.017772
0.021669
0.02208
0.025214
0.027978
0.027897
0.02693
0.023734
0.019542
0.013353
0.0089124
0.0060748
0.034972
0.0552
0.035438
0.020074
0.014349
0.010045
0.0064373
0.0081374
0.012179
0.020866
0.02387
0.026427
0.030387
0.028535
0.026913
0.024572
0.018801
0.014499
0.012138
0.016065
0.021096
0.022714
0.025597
0.026797
0.026183
0.023344
0.021915
0.014749
0.021033
0.024495
0.026442
0.029538
0.026061
0.019572
0.012329
0.01015
0.0068057
0.0072828
0.011949
0.017417
0.021192
0.027292
0.031755
0.037052
0.037123
0.030968
0.023371
0.016809
0.011076
0.008706
0.0068861
0.0094324
0.011609
0.013394
0.017784
0.019496
0.016439
0.012629
0.011396
0.01529
0.019473
0.025071
0.027428
0.027793
0.027081
0.025802
0.021834
0.01579
0.01293
0.017631
0.022944
0.028602
0.028978
0.02754
0.026175
0.024912
0.02278
0.017303
0.012232
0.013323
0.017807
0.022699
0.025473
0.026312
0.025562
0.023923
0.020745
0.015779
0.011544
0.011774
0.016805
0.022781
0.026579
0.027258
0.026145
0.023643
0.019963
0.015292
0.010194
0.0069779
0.01654
0.024461
0.013581
0.010693
0.011821
0.015153
0.016998
0.014983
0.010595
0.018142
0.021676
0.024914
0.026633
0.020697
0.023197
0.030043
0.023125
0.018493
0.012904
0.016245
0.025085
0.020643
0.018738
0.022893
0.023259
0.022736
0.025698
0.020853
0.02287
0.026373
0.027786
0.029213
0.025112
0.016696
0.013144
0.0097503
0.01013
0.0081501
0.0075995
0.015534
0.0288
0.029031
0.025897
0.033445
0.033471
0.029407
0.028429
0.027335
0.017383
0.013087
0.0092477
0.0092334
0.01129
0.011181
0.019835
0.020492
0.014429
0.013167
0.01399
0.019665
0.021648
0.025163
0.028232
0.029031
0.028273
0.026273
0.021894
0.017091
0.015131
0.015167
0.018203
0.023672
0.027551
0.028382
0.027616
0.025682
0.02234
0.017621
0.012501
0.010539
0.01389
0.019323
0.024427
0.026309
0.026057
0.024099
0.02102
0.018123
0.014672
0.014373
0.0175
0.021732
0.026341
0.028574
0.027961
0.025642
0.022013
0.012254
0.0087096
0.017874
0.055437
0.04853
0.024216
0.015872
0.011044
0.010613
0.007091
0.005765
0.010123
0.017777
0.020282
0.02592
0.027761
0.0267
0.027345
0.02199
0.018426
0.015169
0.013527
0.017957
0.021357
0.02418
0.028777
0.029742
0.027953
0.027082
0.021377
0.013152
0.019837
0.020488
0.023224
0.022417
0.020299
0.0099213
0.0089705
0.005865
0.0081307
0.0081261
0.010566
0.015749
0.022403
0.027567
0.037154
0.038634
0.034028
0.029321
0.024775
0.019154
0.014655
0.013467
0.011157
0.0088066
0.010755
0.016548
0.022173
0.020362
0.01689
0.012768
0.010198
0.013799
0.018352
0.023458
0.027562
0.02888
0.026806
0.023359
0.019096
0.013852
0.0087432
0.012771
0.018814
0.024292
0.028149
0.028637
0.027348
0.024793
0.020908
0.016125
0.011571
0.0119
0.016112
0.021364
0.025772
0.027384
0.026026
0.02305
0.019063
0.013873
0.008197
0.01079
0.016504
0.022024
0.026315
0.027695
0.026544
0.023579
0.019465
0.014523
0.0086495
0.011075
0.028117
0.020117
0.010338
0.011324
0.01535
0.019249
0.022134
0.014058
0.0081144
0.015708
0.019519
0.024051
0.023395
0.018455
0.029542
0.029863
0.02339
0.021915
0.011973
0.017075
0.022332
0.015815
0.020947
0.024412
0.024721
0.026589
0.028617
0.011452
0.02007
0.020445
0.025098
0.024802
0.020362
0.017481
0.017074
0.015913
0.016766
0.019452
0.020678
0.021449
0.029886
0.02378
0.029536
0.035938
0.032786
0.028204
0.02849
0.023284
0.011609
0.010576
0.0081667
0.010321
0.011817
0.011221
0.020481
0.013019
0.0082899
0.0063498
0.0088137
0.014731
0.019123
0.023796
0.027415
0.028758
0.028584
0.025186
0.021275
0.016956
0.011926
0.01398
0.019064
0.023013
0.027704
0.029766
0.029427
0.027379
0.023646
0.018795
0.012352
0.0093494
0.012968
0.017945
0.023286
0.025501
0.024943
0.023118
0.019844
0.015262
0.0085821
0.0086447
0.015018
0.021159
0.026383
0.028631
0.028653
0.027002
0.025065
0.021316
0.012632
0.018339
0.056043
0.057598
0.029444
0.01795
0.012434
0.013596
0.0099849
0.01022
0.0072444
0.012902
0.016705
0.022764
0.026902
0.027247
0.029115
0.025966
0.022463
0.018202
0.01126
0.010613
0.015008
0.016744
0.024465
0.028953
0.02836
0.028495
0.025838
0.011552
0.011734
0.011758
0.017339
0.019993
0.020032
0.011118
0.0082768
0.0048103
0.0089049
0.0091549
0.0058734
0.007765
0.015486
0.021262
0.031744
0.037739
0.0354
0.029804
0.025547
0.021803
0.015578
0.010657
0.0094385
0.0076416
0.0087491
0.014131
0.022449
0.024066
0.021133
0.017015
0.011551
0.0084347
0.014238
0.020081
0.02435
0.026399
0.026402
0.025163
0.022059
0.01801
0.012525
0.0092551
0.013202
0.01875
0.023913
0.027499
0.028735
0.029594
0.025353
0.021247
0.01619
0.011213
0.014489
0.020849
0.026052
0.027925
0.028256
0.0275
0.024651
0.020065
0.014607
0.0094842
0.01201
0.018096
0.023259
0.02685
0.027705
0.025949
0.023144
0.019791
0.014116
0.015905
0.033634
0.027007
0.011939
0.012562
0.015507
0.020124
0.023774
0.01847
0.0075869
0.010461
0.015686
0.021055
0.022856
0.01923
0.030316
0.031989
0.027166
0.025321
0.015054
0.012189
0.020048
0.01238
0.017873
0.022994
0.024071
0.027531
0.032631
0.015609
0.016261
0.014799
0.019514
0.019596
0.016607
0.0099718
0.011918
0.011953
0.015095
0.014728
0.0093821
0.011043
0.024303
0.018821
0.02548
0.034503
0.032288
0.031678
0.034316
0.029873
0.014912
0.010782
0.009081
0.0084364
0.0094687
0.011044
0.019904
0.013213
0.0089756
0.01
0.010183
0.011547
0.01719
0.022091
0.026186
0.028369
0.029242
0.028045
0.024603
0.020273
0.014567
0.009146
0.011751
0.01729
0.023191
0.027713
0.028823
0.027908
0.025524
0.021643
0.016633
0.0096333
0.009096
0.014268
0.020162
0.024291
0.025733
0.02518
0.022905
0.018854
0.013648
0.0080359
0.011406
0.01646
0.022006
0.026648
0.028229
0.027822
0.026203
0.02218
0.017549
0.02272
0.059776
0.066499
0.037321
0.023251
0.015931
0.015821
0.012813
0.014062
0.014061
0.013795
0.017636
0.02094
0.023728
0.024918
0.02871
0.027937
0.022913
0.019799
0.014283
0.0096036
0.012012
0.014117
0.020607
0.02557
0.02868
0.029623
0.028432
0.015718
0.014172
0.0097126
0.014601
0.01646
0.017261
0.014135
0.013033
0.0094931
0.018606
0.020403
0.013726
0.0082126
0.011546
0.017366
0.027423
0.035531
0.034081
0.030412
0.027413
0.024011
0.020913
0.017049
0.015344
0.013253
0.010938
0.015896
0.023815
0.025125
0.022832
0.019702
0.015726
0.0097287
0.0084617
0.014222
0.020299
0.025538
0.027752
0.028073
0.026991
0.023914
0.018467
0.011381
0.0096049
0.014272
0.019312
0.024186
0.026529
0.02644
0.024809
0.021412
0.017376
0.011325
0.0090069
0.013865
0.019439
0.024704
0.027031
0.027429
0.02537
0.022103
0.018624
0.0121
0.0077299
0.012211
0.018021
0.024576
0.027267
0.026869
0.025247
0.022168
0.017664
0.018849
0.035906
0.032948
0.014087
0.01196
0.015963
0.021733
0.026583
0.022488
0.011313
0.0065512
0.0093952
0.014541
0.016818
0.013162
0.025919
0.033056
0.026806
0.025647
0.020076
0.013749
0.018563
0.013559
0.016054
0.024935
0.025888
0.027936
0.034576
0.020934
0.013282
0.009578
0.014424
0.017776
0.014458
0.0086269
0.012386
0.010388
0.016034
0.01764
0.014879
0.012582
0.023549
0.023822
0.026459
0.035679
0.035693
0.037417
0.04071
0.037071
0.022037
0.016106
0.014294
0.010667
0.008415
0.010695
0.020779
0.013007
0.0081753
0.0088961
0.010339
0.013956
0.017165
0.018473
0.023382
0.028761
0.033377
0.030844
0.027513
0.023141
0.018682
0.012989
0.0090531
0.012797
0.018362
0.024607
0.028765
0.02936
0.027628
0.024537
0.020745
0.015184
0.0083661
0.0098316
0.015146
0.020562
0.024222
0.025393
0.024613
0.022091
0.018349
0.013003
0.0081413
0.01228
0.018526
0.023988
0.028513
0.029915
0.029034
0.025645
0.021856
0.026487
0.060498
0.072102
0.043016
0.025197
0.01624
0.016797
0.014902
0.016088
0.014078
0.0086532
0.01157
0.015994
0.019269
0.022507
0.028987
0.029768
0.025811
0.023989
0.020053
0.013113
0.011858
0.0087677
0.012334
0.019764
0.024354
0.026539
0.028241
0.01852
0.0085609
0.0062398
0.0075931
0.011944
0.014305
0.011289
0.006993
0.0063805
0.012081
0.014478
0.012503
0.0088024
0.0061836
0.012471
0.020229
0.030044
0.033485
0.031775
0.028895
0.026359
0.023011
0.020335
0.019657
0.014264
0.010118
0.011372
0.019504
0.024178
0.024807
0.022554
0.018727
0.013891
0.0088469
0.010136
0.015113
0.021128
0.025483
0.02685
0.026759
0.024508
0.021774
0.01811
0.012283
0.011236
0.015851
0.021304
0.02576
0.027306
0.027351
0.025324
0.021385
0.015872
0.0098655
0.010966
0.015617
0.02066
0.025494
0.027667
0.028584
0.027081
0.022126
0.017131
0.010247
0.0088896
0.014083
0.019614
0.024646
0.026853
0.026457
0.024687
0.0215
0.024259
0.041865
0.041148
0.02114
0.012114
0.014883
0.021725
0.027183
0.026576
0.017227
0.014087
0.012977
0.014282
0.019918
0.0163
0.024885
0.033463
0.029962
0.030764
0.026809
0.018533
0.010363
0.0074727
0.0095226
0.015452
0.020321
0.025952
0.034612
0.026845
0.0081509
0.0051467
0.0079492
0.011285
0.0099836
0.010836
0.01277
0.013788
0.018786
0.020859
0.018954
0.014746
0.010879
0.0095399
0.016323
0.027695
0.030226
0.029867
0.032967
0.035697
0.023595
0.016584
0.018258
0.014876
0.0098658
0.011696
0.021293
0.015979
0.010084
0.010126
0.011236
0.0095837
0.0061959
0.0089819
0.014397
0.019531
0.024762
0.027057
0.026403
0.024138
0.021371
0.017966
0.013719
0.013018
0.015449
0.01963
0.025332
0.028319
0.028913
0.027753
0.025193
0.023354
0.01717
0.011022
0.012178
0.016956
0.022286
0.026079
0.027286
0.025363
0.02163
0.017336
0.012149
0.010354
0.013712
0.018544
0.023867
0.026905
0.027497
0.026593
0.024859
0.031629
0.064575
0.076922
0.050566
0.0308
0.020159
0.016141
0.015392
0.016406
0.015212
0.010728
0.0094186
0.0098693
0.013645
0.018629
0.024407
0.026823
0.025247
0.024305
0.020806
0.017326
0.012804
0.01045
0.012592
0.019835
0.024774
0.028282
0.030964
0.021935
0.0091819
0.009484
0.011312
0.013667
0.012824
0.0083668
0.0097909
0.010315
0.018273
0.019061
0.015828
0.013423
0.010125
0.010527
0.01899
0.027698
0.030875
0.03068
0.029606
0.028303
0.026312
0.025049
0.026366
0.021913
0.014132
0.01228
0.018701
0.024789
0.026025
0.025887
0.023698
0.019778
0.015513
0.011956
0.013023
0.017137
0.022523
0.026081
0.02732
0.026599
0.024009
0.020832
0.017278
0.013078
0.012472
0.016496
0.021761
0.025696
0.02674
0.026062
0.023894
0.02008
0.015435
0.01161
0.01271
0.016987
0.022669
0.026643
0.027518
0.026332
0.023802
0.020379
0.01578
0.010399
0.011198
0.016041
0.022083
0.026285
0.027312
0.027031
0.0248
0.026777
0.045103
0.048207
0.027089
0.014841
0.014661
0.020739
0.02709
0.027902
0.018078
0.011794
0.010542
0.010336
0.012127
0.012508
0.021716
0.031181
0.031157
0.032755
0.02897
0.019461
0.011622
0.0094602
0.01218
0.013838
0.017524
0.024012
0.032656
0.031247
0.013377
0.006225
0.0068161
0.0060796
0.0061926
0.0075635
0.012523
0.0099178
0.016817
0.019818
0.019061
0.015335
0.0094396
0.0071001
0.011076
0.020055
0.025202
0.028373
0.032003
0.035833
0.028449
0.020422
0.023768
0.020798
0.014046
0.013016
0.022379
0.020177
0.011533
0.010917
0.012159
0.011512
0.0088958
0.0055992
0.0094322
0.015119
0.020283
0.024515
0.025654
0.026027
0.026154
0.02254
0.01657
0.011456
0.011474
0.015924
0.021433
0.02609
0.02845
0.028904
0.027468
0.024071
0.019585
0.013678
0.011041
0.014101
0.018777
0.024033
0.026856
0.027191
0.025233
0.022097
0.018684
0.015812
0.014247
0.016103
0.022809
0.027914
0.029136
0.028
0.027677
0.032891
0.06426
0.085804
0.06186
0.038112
0.025554
0.01772
0.017359
0.017858
0.01798
0.013999
0.011679
0.0091621
0.0085172
0.012021
0.018644
0.025069
0.025098
0.025859
0.024731
0.020685
0.016545
0.01377
0.011629
0.014054
0.018307
0.024873
0.030285
0.025088
0.012197
0.010968
0.011252
0.0094897
0.010168
0.011292
0.013179
0.013645
0.013483
0.016833
0.017176
0.016736
0.014995
0.010736
0.012679
0.021864
0.028571
0.032028
0.030275
0.028808
0.028778
0.028978
0.030749
0.028048
0.020087
0.013669
0.014844
0.021853
0.025021
0.025601
0.024038
0.021296
0.018102
0.014314
0.011729
0.013256
0.017796
0.022959
0.02616
0.026852
0.025254
0.022038
0.018401
0.013225
0.0089297
0.011857
0.01727
0.022807
0.026263
0.026838
0.025674
0.023338
0.019583
0.014372
0.010625
0.013427
0.020412
0.025474
0.027043
0.027484
0.026394
0.023553
0.019436
0.014577
0.011117
0.012789
0.016975
0.021931
0.025957
0.027285
0.026827
0.040732
0.059348
0.043241
0.023459
0.016047
0.017984
0.024118
0.03157
0.025138
0.016629
0.013315
0.011213
0.0068094
0.006961
0.0074001
0.026515
0.0312
0.030671
0.028884
0.023466
0.014584
0.013016
0.014473
0.010117
0.013496
0.018635
0.028987
0.03479
0.017149
0.011125
0.010889
0.011041
0.011569
0.01273
0.019498
0.012399
0.015169
0.020594
0.02345
0.021527
0.017089
0.010855
0.014236
0.015254
0.020387
0.023287
0.02741
0.035352
0.033428
0.023903
0.02647
0.028034
0.022055
0.017054
0.025296
0.026795
0.013968
0.011121
0.014137
0.015675
0.014111
0.011922
0.0078139
0.0095751
0.014767
0.01937
0.024324
0.026485
0.025583
0.023339
0.019925
0.015624
0.0097743
0.010587
0.016526
0.02194
0.02678
0.02857
0.0282
0.026397
0.022954
0.018248
0.011811
0.010008
0.01332
0.018224
0.02323
0.025492
0.025037
0.02281
0.01997
0.016861
0.010834
0.0082163
0.012954
0.018889
0.024632
0.027587
0.027259
0.027429
0.048327
0.08975
0.078575
0.046642
0.029898
0.018799
0.01748
0.017295
0.020929
0.019156
0.016582
0.015885
0.017786
0.014056
0.011871
0.019887
0.023481
0.024561
0.025714
0.023358
0.019698
0.019109
0.016568
0.014566
0.015685
0.019472
0.027647
0.028242
0.015437
0.013131
0.014518
0.012833
0.013136
0.011772
0.014564
0.016356
0.013268
0.016393
0.01887
0.019068
0.017936
0.014333
0.0086762
0.013031
0.021204
0.023669
0.026981
0.028412
0.029736
0.029525
0.031065
0.033604
0.029135
0.019459
0.010785
0.015768
0.021693
0.024456
0.02502
0.023877
0.021383
0.017577
0.012069
0.0078142
0.011032
0.016355
0.022236
0.025791
0.026441
0.025409
0.022401
0.01827
0.012369
0.0079957
0.011597
0.017311
0.02307
0.026445
0.026933
0.025519
0.022827
0.019385
0.014428
0.0097774
0.013142
0.018494
0.02352
0.027508
0.028024
0.025638
0.022829
0.019985
0.014192
0.0082747
0.011899
0.017419
0.023178
0.027321
0.028601
0.028582
0.040244
0.062296
0.051606
0.030574
0.021314
0.019249
0.022388
0.030768
0.027219
0.017316
0.01588
0.015942
0.011372
0.0081557
0.0069451
0.021421
0.026982
0.027978
0.030128
0.026995
0.019578
0.015992
0.021135
0.011997
0.012255
0.016572
0.026296
0.035872
0.019094
0.014377
0.017383
0.012764
0.012024
0.012535
0.024464
0.018512
0.014044
0.019312
0.02285
0.023002
0.017637
0.011279
0.014124
0.0080427
0.015831
0.018284
0.023275
0.034214
0.03545
0.025116
0.02688
0.031226
0.029284
0.023424
0.029275
0.032012
0.019322
0.015279
0.017226
0.019188
0.018783
0.017489
0.013919
0.0098992
0.012575
0.017427
0.022115
0.026111
0.025886
0.025242
0.022859
0.019094
0.014113
0.0083899
0.011137
0.017075
0.023087
0.027953
0.029484
0.028677
0.026294
0.022579
0.017938
0.010956
0.0097374
0.014027
0.019848
0.024864
0.02656
0.02562
0.023302
0.020078
0.015575
0.0096362
0.010434
0.015791
0.021207
0.026772
0.029272
0.028615
0.045138
0.089883
0.090236
0.058624
0.039493
0.02474
0.01774
0.015604
0.019862
0.019597
0.018495
0.019701
0.014532
0.0114
0.011447
0.018834
0.022999
0.024615
0.027212
0.026988
0.025471
0.023787
0.022284
0.016315
0.015625
0.023317
0.030425
0.028695
0.016135
0.012732
0.017302
0.015222
0.016267
0.014151
0.01743
0.019167
0.0093439
0.014866
0.019958
0.020585
0.019857
0.017817
0.013561
0.0073493
0.015003
0.019297
0.023819
0.027064
0.029573
0.030637
0.032232
0.036716
0.033964
0.025593
0.01573
0.014022
0.017738
0.022266
0.025189
0.025198
0.024158
0.021022
0.016425
0.010013
0.0075859
0.0123
0.017984
0.023576
0.026408
0.026593
0.025476
0.022634
0.018072
0.01133
0.0077113
0.012283
0.018323
0.023554
0.026217
0.026559
0.024857
0.021822
0.01763
0.011369
0.0086884
0.013307
0.01843
0.023969
0.026797
0.026901
0.025396
0.022809
0.01962
0.014279
0.011523
0.013486
0.018604
0.024863
0.028527
0.029596
0.039534
0.06316
0.059141
0.037945
0.0258
0.020756
0.018905
0.028822
0.029006
0.021054
0.019244
0.01924
0.016169
0.014634
0.016438
0.019444
0.025453
0.026023
0.030394
0.027522
0.019362
0.016321
0.025535
0.018847
0.010845
0.011319
0.018788
0.031341
0.019461
0.009646
0.013592
0.012166
0.01354
0.016011
0.027623
0.024362
0.010661
0.015391
0.021663
0.022595
0.01828
0.010751
0.017019
0.010959
0.01036
0.013556
0.018128
0.030639
0.035247
0.025118
0.026908
0.032875
0.033229
0.029693
0.034181
0.038354
0.023981
0.014211
0.014874
0.017699
0.018321
0.018457
0.018339
0.012996
0.0069079
0.0094978
0.015038
0.021191
0.025165
0.025851
0.024608
0.022212
0.018869
0.013603
0.0091033
0.012567
0.018246
0.023787
0.027317
0.028254
0.027404
0.024748
0.021134
0.016089
0.010406
0.011354
0.015764
0.02107
0.02551
0.027063
0.026057
0.023217
0.019489
0.015125
0.014502
0.013902
0.016532
0.022632
0.027277
0.029523
0.044423
0.088001
0.095985
0.067621
0.047699
0.03042
0.022811
0.019095
0.020458
0.021005
0.019677
0.021495
0.017801
0.013675
0.0080858
0.011415
0.016806
0.019744
0.025248
0.026575
0.024424
0.023553
0.023456
0.01639
0.010361
0.010602
0.016853
0.022522
0.013178
0.010376
0.017345
0.017477
0.01791
0.018235
0.022171
0.024808
0.013946
0.011546
0.018516
0.021446
0.021716
0.018985
0.016453
0.010753
0.011053
0.014803
0.018607
0.021869
0.02653
0.030219
0.033599
0.039219
0.038512
0.033106
0.023256
0.01423
0.014561
0.018465
0.023325
0.025105
0.025175
0.023635
0.020299
0.015833
0.010412
0.010154
0.014397
0.020143
0.025805
0.027677
0.028226
0.026292
0.021361
0.016383
0.010408
0.0096226
0.014183
0.019721
0.024792
0.027073
0.027124
0.025575
0.022095
0.018267
0.012491
0.010806
0.015507
0.021092
0.025631
0.027244
0.026922
0.025532
0.022356
0.01807
0.012872
0.010757
0.014809
0.020294
0.025463
0.028424
0.038595
0.063655
0.063662
0.043538
0.031191
0.020088
0.016784
0.023434
0.026619
0.020398
0.020193
0.021583
0.019892
0.01895
0.019589
0.012102
0.019015
0.020261
0.027573
0.028015
0.022062
0.017399
0.027621
0.025784
0.016272
0.012555
0.015671
0.029402
0.024207
0.012484
0.015983
0.017606
0.019687
0.023006
0.03464
0.033416
0.017292
0.014338
0.019935
0.023301
0.021474
0.013381
0.019039
0.016768
0.0076331
0.0088193
0.014695
0.024244
0.033369
0.026335
0.027345
0.036297
0.036991
0.035158
0.041005
0.04513
0.030676
0.017519
0.014792
0.018384
0.019617
0.020074
0.018588
0.015183
0.010088
0.0069866
0.010994
0.016031
0.02155
0.024976
0.025505
0.024194
0.021494
0.017802
0.012332
0.0092052
0.012803
0.018387
0.024419
0.028219
0.028755
0.027253
0.024226
0.020331
0.014384
0.0090314
0.011715
0.016357
0.021558
0.02488
0.025987
0.025501
0.022633
0.01893
0.014673
0.011956
0.014751
0.019309
0.02434
0.028603
0.04199
0.085441
0.10213
0.074863
0.055118
0.037201
0.02422
0.017817
0.018498
0.02254
0.020816
0.02282
0.022791
0.01797
0.014065
0.0090912
0.012276
0.0159
0.023338
0.026633
0.025774
0.025079
0.026446
0.020796
0.013928
0.0088094
0.011743
0.017723
0.012713
0.01018
0.018085
0.018978
0.019667
0.021787
0.02668
0.032488
0.021872
0.012628
0.01444
0.019965
0.023231
0.020644
0.01898
0.013117
0.0068226
0.0087497
0.013381
0.017158
0.02271
0.02845
0.032733
0.038688
0.039899
0.035927
0.029256
0.017938
0.012776
0.014774
0.02063
0.024638
0.02645
0.02606
0.023372
0.019772
0.015656
0.010524
0.011811
0.016561
0.022346
0.027547
0.028384
0.026576
0.024031
0.02092
0.016524
0.010773
0.010195
0.014745
0.020044
0.024232
0.026221
0.026075
0.024146
0.020553
0.015593
0.0097381
0.010537
0.01561
0.021424
0.025778
0.027579
0.026942
0.02447
0.021423
0.016932
0.01266
0.013076
0.01604
0.021027
0.025849
0.035136
0.060648
0.069273
0.05218
0.040459
0.026569
0.015312
0.017429
0.023934
0.019049
0.017938
0.021225
0.021426
0.020792
0.025376
0.014678
0.016286
0.01617
0.024176
0.027641
0.023963
0.01796
0.028097
0.031554
0.025625
0.019318
0.014812
0.02304
0.022962
0.010049
0.01247
0.016782
0.018095
0.023339
0.03846
0.04707
0.025297
0.016248
0.020735
0.024808
0.024055
0.017049
0.016823
0.022241
0.013262
0.0088833
0.01164
0.018367
0.029654
0.028764
0.026573
0.036538
0.038335
0.036248
0.037678
0.04662
0.04104
0.024575
0.016232
0.017065
0.019623
0.020403
0.02034
0.018095
0.014829
0.0097597
0.0081306
0.012248
0.017402
0.022737
0.025366
0.025582
0.023997
0.020536
0.01626
0.010564
0.0098324
0.015693
0.021498
0.026692
0.029059
0.029116
0.027714
0.025462
0.022069
0.014513
0.010166
0.012626
0.017457
0.022537
0.026059
0.026941
0.024943
0.0214
0.017039
0.011933
0.0096215
0.013877
0.019637
0.025863
0.039429
0.080706
0.10277
0.078022
0.058618
0.042982
0.026322
0.018059
0.016872
0.019911
0.019092
0.02334
0.024497
0.021322
0.018783
0.011754
0.011717
0.014704
0.018225
0.022765
0.025611
0.027279
0.028674
0.023402
0.01876
0.016363
0.014921
0.017515
0.011879
0.009727
0.018431
0.02078
0.022123
0.025174
0.030568
0.037774
0.027623
0.014255
0.013552
0.01851
0.02198
0.022051
0.022484
0.01781
0.012903
0.011961
0.0097532
0.013828
0.020559
0.027144
0.031484
0.039119
0.043003
0.040419
0.034613
0.02551
0.015135
0.013836
0.017169
0.021738
0.025032
0.025861
0.0248
0.022317
0.01844
0.013055
0.0082098
0.010662
0.015878
0.021803
0.025485
0.026056
0.025065
0.022802
0.018665
0.013804
0.0093082
0.012065
0.018222
0.023967
0.027463
0.028785
0.027698
0.025242
0.020536
0.014517
0.010282
0.01286
0.016909
0.023066
0.026723
0.02768
0.026868
0.024245
0.02034
0.015046
0.0097324
0.011951
0.017248
0.022691
0.034268
0.059341
0.069926
0.053783
0.041618
0.03137
0.018803
0.01745
0.021557
0.018195
0.017314
0.021104
0.023107
0.023193
0.027317
0.01967
0.01346
0.015417
0.021349
0.025503
0.024405
0.021102
0.030758
0.03474
0.024369
0.017412
0.012075
0.018163
0.016651
0.0061375
0.010067
0.015287
0.01921
0.02673
0.040165
0.048101
0.029876
0.017844
0.01646
0.020842
0.022253
0.015366
0.020089
0.023835
0.014815
0.011725
0.0096235
0.016235
0.026195
0.023382
0.026497
0.037289
0.040716
0.040498
0.046215
0.057334
0.047616
0.029045
0.018637
0.016812
0.01996
0.022179
0.022694
0.021508
0.018827
0.014479
0.0080535
0.0079873
0.013394
0.01896
0.023383
0.024949
0.024393
0.022201
0.018469
0.013866
0.0096039
0.012556
0.01727
0.021801
0.026705
0.028946
0.028604
0.026835
0.023148
0.018304
0.012461
0.010998
0.014874
0.019994
0.023964
0.025866
0.025535
0.023884
0.020444
0.015841
0.011173
0.011206
0.017274
0.023148
0.03622
0.075627
0.1044
0.085578
0.064564
0.050369
0.033243
0.022053
0.017175
0.018859
0.018193
0.021471
0.023944
0.022074
0.021179
0.017266
0.01286
0.013697
0.015746
0.019929
0.023223
0.025832
0.028085
0.027838
0.023325
0.018421
0.011931
0.011635
0.010547
0.0071751
0.014976
0.02038
0.02225
0.026508
0.033027
0.042737
0.036608
0.020487
0.015392
0.015971
0.020621
0.022755
0.021566
0.019386
0.012966
0.010618
0.0084245
0.0096953
0.015642
0.022136
0.029611
0.038776
0.043691
0.041943
0.037075
0.028653
0.018983
0.012754
0.013552
0.017937
0.022494
0.025508
0.026128
0.024874
0.0221
0.018322
0.01241
0.0093982
0.013488
0.018856
0.024592
0.027905
0.027761
0.025599
0.022126
0.018046
0.013276
0.010629
0.014266
0.019352
0.024603
0.026789
0.027157
0.026298
0.023505
0.019893
0.015198
0.013983
0.017882
0.02175
0.023783
0.026095
0.026493
0.02514
0.022513
0.019081
0.013667
0.0095811
0.016181
0.023965
0.046293
0.071427
0.063892
0.047716
0.039567
0.027427
0.016801
0.016561
0.017662
0.014717
0.019375
0.024328
0.025193
0.029084
0.02965
0.015996
0.01204
0.013135
0.017823
0.019308
0.01704
0.022938
0.034388
0.030295
0.023379
0.017569
0.0096984
0.017463
0.011387
0.0068821
0.014302
0.017857
0.023882
0.034216
0.052203
0.044596
0.023866
0.014752
0.015707
0.020009
0.019009
0.017137
0.026214
0.021776
0.015982
0.014067
0.011004
0.019564
0.022991
0.018563
0.030425
0.040248
0.042418
0.043473
0.05535
0.059148
0.040928
0.024659
0.015426
0.016095
0.020537
0.023967
0.024732
0.023426
0.020627
0.016339
0.014247
0.01306
0.013525
0.018897
0.0236
0.025495
0.025423
0.023799
0.020296
0.015279
0.0088232
0.0098523
0.015867
0.021885
0.026874
0.028594
0.028484
0.026719
0.02332
0.018463
0.011345
0.0087542
0.01431
0.018828
0.022952
0.025322
0.025591
0.024145
0.020754
0.016369
0.0099583
0.010401
0.015767
0.022604
0.047684
0.094042
0.10145
0.077439
0.061396
0.044662
0.032329
0.022811
0.017369
0.018445
0.020291
0.02564
0.025825
0.024905
0.022692
0.016793
0.011284
0.0068264
0.011506
0.016343
0.021058
0.026604
0.030523
0.027425
0.022651
0.017982
0.011081
0.010052
0.011687
0.010009
0.016441
0.021227
0.027184
0.032121
0.042938
0.048071
0.03504
0.019125
0.011496
0.014241
0.019583
0.022465
0.023449
0.019776
0.01538
0.012844
0.0082037
0.0075548
0.014327
0.021289
0.031504
0.042205
0.045171
0.042425
0.035512
0.025967
0.017903
0.011117
0.011777
0.016332
0.022109
0.025758
0.02673
0.025857
0.0232
0.019624
0.013552
0.0080921
0.011969
0.017359
0.022519
0.026464
0.0268
0.026078
0.023609
0.019202
0.01377
0.0082695
0.011714
0.017654
0.023311
0.026915
0.027487
0.026139
0.02318
0.019829
0.017042
0.011371
0.012154
0.017248
0.022846
0.026556
0.02722
0.026071
0.023377
0.019328
0.01359
0.0075675
0.010744
0.017725
0.040399
0.06942
0.06546
0.050141
0.04296
0.032811
0.021168
0.014613
0.013191
0.012632
0.016331
0.02238
0.024062
0.028928
0.031794
0.019688
0.01435
0.013212
0.015327
0.017938
0.018415
0.024503
0.037405
0.0356
0.032999
0.027075
0.016369
0.012852
0.0087416
0.0098929
0.013057
0.016764
0.023637
0.033276
0.052076
0.049062
0.030547
0.017126
0.01129
0.012756
0.012859
0.014155
0.025975
0.02186
0.017233
0.015862
0.010657
0.013537
0.016711
0.014783
0.026824
0.038507
0.042606
0.045442
0.057953
0.062918
0.048193
0.032053
0.019782
0.014786
0.017004
0.021391
0.023684
0.02428
0.022882
0.01989
0.015287
0.00919
0.0088255
0.013798
0.020052
0.02424
0.025391
0.024835
0.023936
0.021311
0.016141
0.0096424
0.011337
0.017493
0.023875
0.027547
0.028348
0.028365
0.0274
0.022768
0.017391
0.012758
0.012275
0.015632
0.020474
0.024959
0.026902
0.026642
0.024554
0.020997
0.017991
0.013145
0.011473
0.016154
0.041157
0.090349
0.10077
0.078479
0.06459
0.050523
0.036928
0.028449
0.019534
0.014949
0.017151
0.024498
0.02591
0.026883
0.02483
0.019351
0.016016
0.01142
0.0099667
0.013343
0.018243
0.024824
0.029886
0.02915
0.026532
0.023418
0.017826
0.011687
0.010865
0.011183
0.015793
0.021517
0.026681
0.031518
0.04309
0.051283
0.04103
0.025362
0.014692
0.013303
0.017179
0.021971
0.025017
0.020171
0.016085
0.014756
0.012715
0.010495
0.012065
0.019388
0.028125
0.03859
0.043799
0.043536
0.039204
0.031624
0.025146
0.018459
0.013894
0.013238
0.018054
0.02347
0.026505
0.026874
0.025665
0.022939
0.018264
0.013713
0.011584
0.014194
0.018755
0.023878
0.027253
0.028001
0.028057
0.023468
0.018931
0.012329
0.0099068
0.014263
0.019144
0.02412
0.027124
0.027504
0.025699
0.022933
0.019732
0.014938
0.011921
0.014048
0.019157
0.026763
0.030859
0.030252
0.028858
0.026241
0.019752
0.012937
0.0089958
0.013637
0.031004
0.062114
0.067921
0.05423
0.046881
0.038226
0.027504
0.017446
0.010405
0.0084468
0.011916
0.019502
0.024867
0.029938
0.03561
0.024634
0.014741
0.012827
0.010675
0.01264
0.012356
0.015886
0.033908
0.035659
0.030267
0.026357
0.019442
0.011288
0.0094305
0.014607
0.010823
0.014085
0.021703
0.03051
0.048842
0.054316
0.039201
0.026502
0.016547
0.013706
0.013531
0.011923
0.023741
0.025681
0.020554
0.020229
0.018069
0.012807
0.016834
0.015217
0.020706
0.033882
0.039996
0.043253
0.055159
0.066898
0.058784
0.043872
0.030061
0.020794
0.022488
0.025003
0.025148
0.026116
0.026203
0.024228
0.020568
0.015469
0.010823
0.010349
0.014465
0.020034
0.024102
0.025129
0.024329
0.02195
0.018225
0.013824
0.0096492
0.011924
0.017747
0.024268
0.028752
0.029706
0.028608
0.026872
0.025235
0.020888
0.012279
0.010318
0.015148
0.020521
0.024553
0.025913
0.025268
0.0226
0.018735
0.014074
0.0087601
0.011509
0.032015
0.082687
0.10301
0.080899
0.066562
0.054369
0.040922
0.033373
0.022329
0.014702
0.01462
0.021324
0.02433
0.025365
0.026856
0.022364
0.019418
0.017171
0.011357
0.0097691
0.013174
0.021273
0.0293
0.031092
0.028516
0.02648
0.024677
0.022167
0.02025
0.015666
0.011829
0.015793
0.023292
0.030369
0.042743
0.053487
0.045797
0.032166
0.020922
0.013561
0.014256
0.01756
0.02204
0.02035
0.017158
0.015476
0.014552
0.013345
0.0093004
0.012066
0.021699
0.034833
0.042532
0.04416
0.042037
0.034166
0.028222
0.023295
0.015297
0.010903
0.014063
0.019299
0.02442
0.027126
0.027399
0.026186
0.022718
0.017822
0.012842
0.012122
0.016433
0.022785
0.026667
0.027436
0.026838
0.024606
0.021137
0.016442
0.01011
0.0091043
0.01414
0.019754
0.024626
0.027355
0.027524
0.025946
0.023156
0.019768
0.014861
0.012247
0.016215
0.022002
0.027096
0.028798
0.029341
0.025594
0.021674
0.01722
0.011249
0.009697
0.023419
0.055525
0.067441
0.055543
0.04893
0.041507
0.031067
0.020913
0.012645
0.010191
0.010038
0.015078
0.021266
0.02783
0.036339
0.027231
0.01667
0.015512
0.0098884
0.0078658
0.0080854
0.0099795
0.029149
0.034287
0.030375
0.029058
0.024234
0.016594
0.017788
0.023036
0.011764
0.0095893
0.018459
0.029773
0.048633
0.057941
0.042069
0.029319
0.019175
0.011576
0.0091636
0.0096518
0.022014
0.026286
0.021446
0.022575
0.019561
0.013875
0.010957
0.0075601
0.013751
0.028273
0.03786
0.043089
0.055336
0.069249
0.060503
0.045989
0.034016
0.023455
0.01707
0.016473
0.021439
0.026738
0.030863
0.030691
0.024665
0.019811
0.01656
0.012744
0.011869
0.015932
0.021497
0.024716
0.024994
0.023451
0.020967
0.0175
0.012172
0.0089598
0.012824
0.01819
0.023916
0.027739
0.028844
0.027733
0.0252
0.021414
0.015645
0.012255
0.013949
0.016634
0.021313
0.025218
0.02632
0.025066
0.022414
0.018998
0.013744
0.0096114
0.025238
0.074369
0.10107
0.081961
0.068215
0.057006
0.042952
0.036901
0.028182
0.017745
0.013328
0.017374
0.021738
0.024519
0.027295
0.024027
0.02235
0.021602
0.014927
0.0086576
0.0090233
0.015698
0.025115
0.028199
0.027245
0.025127
0.021882
0.017723
0.021723
0.021102
0.012909
0.013266
0.019906
0.029245
0.041795
0.054621
0.04826
0.035165
0.025024
0.014965
0.0099427
0.011819
0.017778
0.019343
0.016755
0.017622
0.01879
0.017966
0.014538
0.011494
0.017805
0.03018
0.040378
0.043933
0.042909
0.037177
0.031528
0.027609
0.02119
0.015016
0.014983
0.017053
0.02187
0.025552
0.02645
0.026042
0.024676
0.022906
0.017563
0.011579
0.013454
0.018524
0.023657
0.027159
0.028529
0.028662
0.025907
0.020928
0.015102
0.01013
0.011504
0.015596
0.021307
0.026013
0.027508
0.026737
0.024269
0.021339
0.018078
0.013246
0.015084
0.017893
0.020947
0.025024
0.026742
0.026489
0.024416
0.020902
0.015571
0.011193
0.018222
0.048101
0.064506
0.054842
0.048906
0.043971
0.033914
0.023743
0.016072
0.016155
0.01153
0.015408
0.021417
0.026523
0.036436
0.030943
0.02148
0.02399
0.017284
0.0097835
0.0063854
0.0075648
0.024186
0.032743
0.030573
0.030096
0.025988
0.015963
0.0095424
0.026584
0.020724
0.010109
0.011916
0.02404
0.040782
0.059928
0.051785
0.035562
0.026237
0.017235
0.011368
0.0089454
0.013844
0.025529
0.021398
0.022211
0.026545
0.023325
0.016378
0.01475
0.0215
0.033401
0.036357
0.040112
0.048598
0.065829
0.067709
0.053247
0.041956
0.029216
0.01793
0.013449
0.016777
0.021913
0.025217
0.025907
0.024944
0.022185
0.018011
0.011379
0.0084495
0.012491
0.017946
0.022767
0.025103
0.025026
0.023784
0.022914
0.021201
0.015967
0.011861
0.014615
0.020643
0.026901
0.029689
0.028584
0.027953
0.024944
0.019111
0.013035
0.0092526
0.01268
0.017903
0.023489
0.026585
0.026693
0.024831
0.021611
0.018087
0.01409
0.021781
0.06622
0.096575
0.081167
0.068402
0.059033
0.046128
0.040791
0.032776
0.021608
0.015893
0.015636
0.019277
0.023049
0.027431
0.02647
0.026254
0.025677
0.020133
0.018511
0.015026
0.012303
0.019468
0.024178
0.025673
0.026016
0.024964
0.020897
0.024427
0.026723
0.014857
0.011622
0.017035
0.026194
0.039377
0.055093
0.051967
0.03849
0.029519
0.021082
0.012479
0.010029
0.013857
0.016101
0.015676
0.018101
0.020844
0.020162
0.016437
0.011624
0.012812
0.025325
0.034647
0.04046
0.04214
0.037344
0.032357
0.029158
0.024681
0.019639
0.014012
0.015923
0.020059
0.022655
0.028632
0.028846
0.026526
0.02444
0.022809
0.019305
0.012586
0.012888
0.017632
0.022811
0.025724
0.026548
0.025666
0.02309
0.020346
0.016752
0.01109
0.014532
0.019058
0.023419
0.026256
0.027236
0.026463
0.024416
0.02129
0.016192
0.01091
0.013767
0.019973
0.024854
0.027078
0.027401
0.026127
0.023586
0.019766
0.014015
0.014632
0.042605
0.060562
0.052904
0.049219
0.046105
0.036557
0.026941
0.018874
0.020128
0.017416
0.013727
0.016677
0.023403
0.035755
0.03254
0.022008
0.024496
0.022026
0.018092
0.012514
0.014416
0.023455
0.03344
0.030056
0.030002
0.028066
0.019756
0.017917
0.032308
0.023744
0.012416
0.012729
0.023377
0.043818
0.059744
0.048336
0.03557
0.028162
0.021408
0.015158
0.012609
0.01347
0.020902
0.018308
0.019344
0.020512
0.018404
0.010428
0.0114
0.011415
0.019051
0.028197
0.036332
0.050096
0.06926
0.068183
0.055291
0.043873
0.03204
0.021566
0.015093
0.0154
0.020216
0.024522
0.026707
0.02722
0.025323
0.021563
0.017214
0.011281
0.0090502
0.013168
0.018855
0.023634
0.026184
0.025857
0.023884
0.020521
0.016903
0.014913
0.015365
0.01689
0.021411
0.026421
0.029434
0.029715
0.028081
0.024678
0.021156
0.01466
0.01156
0.016355
0.021811
0.02656
0.026575
0.025885
0.023815
0.021394
0.017835
0.016845
0.054262
0.090176
0.079699
0.067085
0.060781
0.049314
0.043625
0.037007
0.026811
0.02007
0.015002
0.01543
0.01937
0.026249
0.027675
0.025488
0.025734
0.022343
0.018125
0.012448
0.0089027
0.015987
0.022555
0.025106
0.026281
0.025823
0.021102
0.0225
0.032017
0.023944
0.01334
0.013131
0.021286
0.033351
0.051195
0.055901
0.045214
0.035761
0.028753
0.020342
0.015637
0.014663
0.015621
0.014867
0.016136
0.019147
0.022029
0.020254
0.017306
0.017469
0.023447
0.031535
0.037126
0.042164
0.042397
0.035935
0.031697
0.026015
0.021347
0.016896
0.01475
0.018185
0.023309
0.028949
0.030914
0.031439
0.029166
0.024636
0.019493
0.013871
0.010485
0.013777
0.018734
0.023706
0.026738
0.027575
0.026008
0.022347
0.019179
0.013963
0.0095516
0.012308
0.017809
0.023606
0.026354
0.026343
0.02575
0.023259
0.018974
0.012905
0.0088366
0.011824
0.01726
0.022721
0.026105
0.026744
0.025294
0.01982
0.013903
0.020524
0.051071
0.053036
0.044721
0.043924
0.039235
0.032239
0.02372
0.023685
0.02453
0.016528
0.011081
0.014499
0.025092
0.0354
0.026502
0.022691
0.022657
0.018622
0.016962
0.015084
0.015145
0.024232
0.026277
0.027706
0.030106
0.025984
0.017453
0.030307
0.038353
0.023122
0.012155
0.013274
0.027073
0.053113
0.057561
0.043056
0.034889
0.027245
0.020816
0.017064
0.014416
0.017231
0.01994
0.020095
0.025452
0.026512
0.018292
0.013194
0.016765
0.010202
0.020397
0.026813
0.036578
0.055713
0.071095
0.0634
0.051141
0.04035
0.030374
0.022812
0.019441
0.017171
0.020698
0.026265
0.029022
0.028611
0.026276
0.024001
0.019603
0.011836
0.010254
0.013589
0.019069
0.023965
0.027468
0.027434
0.02505
0.022094
0.016475
0.010193
0.011139
0.016516
0.02222
0.026959
0.02901
0.028581
0.027319
0.024687
0.020101
0.014155
0.01149
0.015496
0.020656
0.024302
0.026374
0.02606
0.024172
0.020952
0.015075
0.023307
0.077195
0.085751
0.068065
0.062446
0.052275
0.044954
0.040836
0.031559
0.028658
0.022582
0.014699
0.015026
0.019803
0.026237
0.026138
0.027511
0.026334
0.022259
0.018753
0.013239
0.010325
0.017425
0.019657
0.022839
0.024966
0.023043
0.024703
0.03545
0.032549
0.019567
0.010739
0.013706
0.023447
0.04352
0.056594
0.048505
0.038863
0.032428
0.02589
0.017053
0.012843
0.015253
0.013312
0.013871
0.018307
0.022912
0.023807
0.020754
0.014951
0.0084139
0.01813
0.028662
0.035277
0.037622
0.034423
0.032462
0.029645
0.025773
0.021089
0.017391
0.017821
0.016342
0.018262
0.023542
0.026614
0.027066
0.02574
0.023575
0.019117
0.013281
0.0096006
0.013173
0.019401
0.024819
0.027302
0.027279
0.02629
0.02351
0.019339
0.013548
0.0084478
0.014264
0.018614
0.022999
0.026527
0.02706
0.025111
0.022334
0.01833
0.013112
0.0096687
0.011899
0.017407
0.023615
0.027996
0.02863
0.027158
0.024242
0.01881
0.012861
0.044169
0.050171
0.040385
0.041734
0.039097
0.033071
0.024684
0.024784
0.029846
0.024954
0.016369
0.01418
0.022829
0.035216
0.027626
0.023987
0.025125
0.021359
0.020583
0.019944
0.011348
0.018898
0.023091
0.024804
0.028319
0.0256
0.018626
0.032309
0.039778
0.026127
0.015804
0.011287
0.024768
0.051758
0.057863
0.043967
0.036721
0.029844
0.024986
0.02229
0.017537
0.012455
0.016921
0.016915
0.021014
0.024092
0.018688
0.015559
0.020957
0.011817
0.012466
0.023094
0.03304
0.055432
0.07199
0.062761
0.051821
0.042145
0.033273
0.025175
0.015963
0.012359
0.015539
0.021672
0.026615
0.028394
0.027781
0.025106
0.021696
0.017191
0.009662
0.0097994
0.014305
0.019311
0.023745
0.025991
0.025544
0.024243
0.021058
0.015343
0.010588
0.016836
0.02004
0.025774
0.028042
0.028905
0.028915
0.026662
0.023051
0.018253
0.012182
0.012261
0.016398
0.023638
0.027329
0.026812
0.026013
0.024964
0.02028
0.012752
0.063383
0.082367
0.064028
0.059291
0.053002
0.046571
0.043439
0.034669
0.029002
0.024128
0.014555
0.01209
0.015018
0.021897
0.024314
0.026808
0.027625
0.026133
0.023884
0.020113
0.01418
0.01497
0.018576
0.020898
0.024215
0.025902
0.025863
0.036039
0.036781
0.025322
0.016323
0.010962
0.019077
0.038671
0.05661
0.050794
0.040997
0.034844
0.028723
0.022811
0.016048
0.0098397
0.0098205
0.010426
0.017082
0.022823
0.024281
0.021273
0.018642
0.012677
0.015255
0.026399
0.03146
0.032654
0.033347
0.033589
0.032815
0.029494
0.024793
0.019409
0.01187
0.009374
0.014375
0.019731
0.025566
0.027399
0.026824
0.024742
0.022278
0.018519
0.011959
0.010844
0.015109
0.020338
0.025449
0.026917
0.026759
0.025416
0.022663
0.018851
0.012791
0.0089682
0.013145
0.018821
0.024637
0.027566
0.027347
0.025534
0.022298
0.018301
0.012412
0.0088578
0.013157
0.019518
0.025463
0.028788
0.028983
0.026878
0.024342
0.01662
0.035166
0.045569
0.036876
0.037899
0.037538
0.033057
0.026957
0.026387
0.030838
0.026411
0.016462
0.010657
0.014693
0.028773
0.023935
0.021828
0.025885
0.023127
0.022978
0.024856
0.022834
0.014892
0.019827
0.020808
0.026146
0.024613
0.017914
0.030378
0.044121
0.033079
0.023491
0.01342
0.020241
0.044929
0.057653
0.044626
0.037077
0.031842
0.028153
0.026916
0.026637
0.012247
0.014096
0.012405
0.018531
0.024046
0.021359
0.016942
0.025683
0.019468
0.0099569
0.017135
0.027166
0.047774
0.068589
0.063774
0.054337
0.045924
0.03713
0.030092
0.022306
0.01493
0.014284
0.019211
0.025233
0.02858
0.028526
0.027918
0.025591
0.021407
0.015486
0.0098186
0.010443
0.01538
0.021139
0.02527
0.025614
0.024463
0.022431
0.019343
0.015603
0.011162
0.014042
0.020377
0.025131
0.030726
0.029822
0.029293
0.027842
0.022027
0.015277
0.0094689
0.011518
0.016828
0.02186
0.025082
0.026196
0.025364
0.022191
0.010899
0.050735
0.077416
0.061504
0.055224
0.049687
0.044063
0.043864
0.037884
0.032051
0.02919
0.020605
0.013538
0.013081
0.019049
0.021859
0.025897
0.029343
0.026996
0.025914
0.023406
0.017078
0.0088194
0.01142
0.015218
0.02093
0.024448
0.024503
0.035598
0.040464
0.029715
0.022044
0.011486
0.014094
0.031228
0.052747
0.051357
0.042229
0.037151
0.032166
0.026032
0.021345
0.012941
0.009904
0.0085648
0.013668
0.021067
0.025199
0.024399
0.021479
0.014813
0.0092103
0.017003
0.024427
0.029249
0.030077
0.031965
0.033002
0.031734
0.029094
0.025516
0.019808
0.013609
0.013728
0.017813
0.021373
0.026029
0.028198
0.02744
0.024789
0.021114
0.017182
0.011582
0.011262
0.015097
0.020323
0.025527
0.027304
0.026633
0.024541
0.021322
0.016892
0.010345
0.0089036
0.013771
0.019942
0.025358
0.027357
0.027031
0.025036
0.021487
0.017135
0.010114
0.0085649
0.014976
0.021093
0.025781
0.028598
0.028877
0.025529
0.015095
0.024354
0.038944
0.031514
0.031886
0.03315
0.031743
0.027505
0.02504
0.031496
0.03082
0.022959
0.014163
0.01098
0.024188
0.021363
0.018643
0.025
0.023609
0.024304
0.026556
0.027619
0.010857
0.014288
0.015134
0.021913
0.024831
0.019118
0.028863
0.046799
0.036775
0.028586
0.017794
0.013723
0.035584
0.052871
0.043862
0.038249
0.03379
0.030168
0.029233
0.032256
0.017559
0.012975
0.010085
0.014524
0.021615
0.022652
0.018065
0.026323
0.022037
0.010115
0.01068
0.020322
0.039886
0.063226
0.062692
0.054752
0.047186
0.039305
0.033271
0.026282
0.018621
0.013662
0.014289
0.018648
0.025638
0.029989
0.031624
0.029615
0.025614
0.02381
0.019946
0.012807
0.012411
0.016937
0.022308
0.025306
0.02535
0.02417
0.021437
0.017449
0.011239
0.007821
0.013007
0.019291
0.025652
0.029072
0.028947
0.026898
0.02384
0.020655
0.017171
0.01168
0.013272
0.017931
0.023115
0.026425
0.027105
0.025696
0.020271
0.043839
0.067434
0.055452
0.050587
0.047292
0.043008
0.045261
0.040542
0.03573
0.032836
0.025366
0.017886
0.014617
0.015725
0.017585
0.023703
0.027857
0.028065
0.029358
0.027023
0.021929
0.01286
0.010487
0.014172
0.017113
0.02224
0.024693
0.034833
0.042267
0.034745
0.028666
0.020605
0.0147
0.027248
0.04477
0.047526
0.041858
0.038098
0.033686
0.027605
0.024726
0.018745
0.011617
0.0086751
0.010402
0.017973
0.023419
0.024735
0.023728
0.018613
0.010398
0.011566
0.019294
0.024183
0.024482
0.026596
0.029295
0.030573
0.029898
0.027651
0.024577
0.019521
0.013141
0.014023
0.018096
0.022511
0.026146
0.026876
0.025744
0.023689
0.020237
0.014972
0.01003
0.011838
0.01654
0.021551
0.025897
0.026973
0.028126
0.025596
0.020228
0.016294
0.013475
0.014983
0.0182
0.022905
0.029163
0.031651
0.029268
0.02545
0.020886
0.016748
0.010528
0.011822
0.017724
0.024241
0.029175
0.029058
0.026991
0.020218
0.023862
0.033279
0.027305
0.029191
0.031321
0.029447
0.026407
0.02611
0.034487
0.03409
0.027591
0.02042
0.0156
0.021541
0.018652
0.0163
0.023959
0.025082
0.0263
0.028851
0.030055
0.015602
0.0081969
0.010873
0.017199
0.020386
0.017788
0.029215
0.046622
0.039753
0.032351
0.025
0.017411
0.033131
0.047003
0.039967
0.035918
0.034627
0.033395
0.030943
0.034508
0.026209
0.015296
0.01205
0.012667
0.018417
0.018812
0.016429
0.025791
0.025992
0.015894
0.010011
0.014457
0.033948
0.056627
0.059304
0.053012
0.047926
0.040929
0.035266
0.029515
0.023227
0.016441
0.013213
0.016313
0.021108
0.025022
0.027403
0.028029
0.026628
0.02357
0.018843
0.012239
0.0086348
0.012165
0.017463
0.022706
0.025708
0.025861
0.023923
0.020742
0.017504
0.012911
0.012435
0.017428
0.022472
0.027522
0.031642
0.030271
0.026262
0.022507
0.018256
0.012548
0.0097257
0.013767
0.019583
0.024526
0.026953
0.02626
0.021725
0.042745
0.063597
0.050059
0.044126
0.042049
0.038042
0.041539
0.040514
0.036139
0.035505
0.029239
0.023716
0.01984
0.015007
0.016229
0.021855
0.027208
0.029385
0.029494
0.029208
0.026506
0.01966
0.012354
0.014029
0.016593
0.019128
0.021311
0.027729
0.041846
0.040895
0.031371
0.02614
0.016914
0.018092
0.03585
0.047043
0.043282
0.039465
0.036238
0.032023
0.028641
0.026128
0.019546
0.014249
0.011711
0.01342
0.020938
0.024671
0.023875
0.019849
0.010265
0.0062447
0.0091984
0.016275
0.020399
0.022753
0.02635
0.029161
0.029112
0.027449
0.024131
0.021197
0.016097
0.010326
0.011986
0.017699
0.02337
0.026987
0.027851
0.027196
0.02357
0.019029
0.015953
0.015324
0.017522
0.020502
0.024344
0.027056
0.028382
0.027785
0.024531
0.019627
0.014034
0.0094514
0.013498
0.018557
0.022972
0.025997
0.02667
0.025475
0.023111
0.020495
0.018093
0.01724
0.018533
0.021348
0.025524
0.028077
0.028148
0.022797
0.022243
0.030382
0.023164
0.023024
0.024645
0.025391
0.024289
0.025371
0.034802
0.035485
0.030807
0.02488
0.020299
0.019068
0.01597
0.014674
0.021948
0.024853
0.028651
0.034272
0.04919
0.040814
0.016983
0.014903
0.018475
0.022745
0.023889
0.020578
0.032837
0.047532
0.03935
0.032653
0.024528
0.019686
0.036489
0.047993
0.040955
0.037185
0.033894
0.03116
0.031465
0.034015
0.023844
0.015091
0.010361
0.013471
0.019035
0.019343
0.018561
0.023434
0.015063
0.0074566
0.0082115
0.016789
0.037018
0.056928
0.056682
0.050614
0.045737
0.039583
0.034402
0.028348
0.022099
0.015433
0.013318
0.017773
0.022999
0.026799
0.02837
0.027587
0.026914
0.024378
0.020044
0.01548
0.015541
0.021237
0.023536
0.027066
0.027506
0.026906
0.026986
0.023119
0.016903
0.011012
0.011154
0.016042
0.021926
0.026376
0.028163
0.027644
0.02568
0.022267
0.017808
0.012878
0.012223
0.017273
0.022891
0.026782
0.02832
0.024481
0.03462
0.059849
0.046998
0.037031
0.037317
0.033544
0.036933
0.038716
0.036235
0.036217
0.03172
0.025079
0.020441
0.014468
0.012936
0.017189
0.024111
0.027396
0.030005
0.028216
0.026476
0.019969
0.01486
0.010511
0.0090353
0.012694
0.017567
0.031457
0.043332
0.038917
0.033284
0.028433
0.020537
0.020172
0.034045
0.039485
0.036455
0.036369
0.035734
0.03282
0.030778
0.026348
0.022036
0.019129
0.012687
0.011907
0.017125
0.021395
0.02314
0.021402
0.013848
0.0068253
0.0059919
0.0094196
0.013685
0.017732
0.022775
0.026814
0.028854
0.028505
0.025875
0.023114
0.019979
0.013938
0.011579
0.015686
0.019878
0.02469
0.028299
0.028354
0.026016
0.0226
0.017917
0.011458
0.010352
0.014361
0.019423
0.024395
0.026678
0.026237
0.024718
0.022875
0.020487
0.013911
0.0099548
0.013438
0.018749
0.023724
0.026223
0.026327
0.024641
0.021606
0.01729
0.011575
0.0088125
0.013923
0.019665
0.026885
0.026519
0.014645
0.025724
0.022913
0.018817
0.021168
0.022078
0.022543
0.021128
0.030342
0.038114
0.035341
0.028598
0.022958
0.01317
0.012851
0.0074834
0.011539
0.019733
0.023113
0.028937
0.038799
0.035876
0.017594
0.012365
0.0081444
0.012484
0.014676
0.013448
0.034038
0.049841
0.040948
0.035495
0.026129
0.014543
0.028889
0.040978
0.032448
0.030883
0.030774
0.031664
0.033686
0.036821
0.023956
0.018641
0.014575
0.010714
0.013856
0.014127
0.017234
0.027821
0.021919
0.012269
0.0073662
0.0076672
0.029046
0.051497
0.049819
0.04623
0.04426
0.040526
0.037188
0.032509
0.026707
0.019548
0.012269
0.011454
0.016041
0.021822
0.026765
0.028146
0.027351
0.025592
0.022531
0.018024
0.011386
0.011115
0.017713
0.022943
0.026427
0.029786
0.030581
0.02871
0.027724
0.019407
0.010807
0.0099524
0.015292
0.021464
0.02656
0.028565
0.027936
0.025549
0.022113
0.017596
0.010524
0.0089803
0.014029
0.019353
0.024446
0.02555
0.012951
0.049216
0.053128
0.034337
0.032335
0.029444
0.030088
0.03586
0.03556
0.036147
0.035911
0.029791
0.026
0.02028
0.014016
0.011734
0.017325
0.023609
0.026633
0.032182
0.033241
0.027177
0.01996
0.016299
0.010774
0.0083616
0.01104
0.019859
0.039509
0.042688
0.035976
0.032581
0.024632
0.015841
0.019588
0.035269
0.033057
0.03231
0.035659
0.036177
0.034307
0.03206
0.025938
0.024748
0.019805
0.01232
0.012288
0.018571
0.022118
0.024527
0.021243
0.011346
0.0059202
0.0060123
0.0077894
0.010424
0.016553
0.022112
0.026489
0.029119
0.029254
0.027476
0.024027
0.019229
0.013336
0.015147
0.021133
0.021945
0.025298
0.028324
0.028993
0.027546
0.023827
0.018129
0.011683
0.0089944
0.013785
0.018944
0.023894
0.026607
0.026684
0.025805
0.023479
0.020507
0.015986
0.011198
0.012302
0.018311
0.024265
0.027357
0.027138
0.02552
0.022391
0.017961
0.011886
0.008553
0.012549
0.017519
0.022828
0.02545
0.014381
0.020645
0.01902
0.0098942
0.010903
0.013478
0.015328
0.014517
0.022741
0.034599
0.034562
0.030522
0.026741
0.01832
0.011563
0.008623
0.0084216
0.01584
0.020517
0.027441
0.034688
0.033274
0.017854
0.014119
0.011807
0.010217
0.011006
0.011062
0.032944
0.048028
0.040111
0.037131
0.029484
0.018607
0.024403
0.033036
0.025199
0.025899
0.028486
0.032116
0.037796
0.040975
0.026486
0.023151
0.020799
0.011938
0.011518
0.0097497
0.014832
0.028778
0.024101
0.014964
0.010254
0.0073411
0.025276
0.046001
0.043569
0.040235
0.038933
0.037839
0.036673
0.033408
0.029047
0.024225
0.018368
0.012707
0.016145
0.019348
0.023805
0.027852
0.028379
0.027319
0.026104
0.022305
0.016407
0.010759
0.011085
0.015999
0.020596
0.024516
0.025239
0.024512
0.022667
0.019382
0.014217
0.0093455
0.015577
0.020478
0.024004
0.02881
0.028896
0.02809
0.026149
0.021899
0.0162
0.010144
0.011244
0.01658
0.021352
0.026271
0.013639
0.043768
0.053385
0.033297
0.027498
0.02415
0.024561
0.02988
0.030137
0.033552
0.03744
0.03193
0.028856
0.023989
0.017242
0.012187
0.012518
0.018113
0.021765
0.027751
0.030417
0.028058
0.022439
0.020713
0.016909
0.01009
0.0082507
0.012781
0.033492
0.042621
0.036422
0.033388
0.026214
0.0178
0.012471
0.027936
0.029045
0.026679
0.029508
0.032659
0.032199
0.032531
0.029592
0.029041
0.026402
0.017831
0.01041
0.012247
0.017413
0.021184
0.019609
0.012283
0.0076335
0.0054282
0.0052697
0.0083972
0.012321
0.017225
0.022143
0.026833
0.028354
0.027818
0.026121
0.022702
0.018169
0.01282
0.011043
0.013984
0.020025
0.02556
0.027596
0.027744
0.026756
0.023341
0.018198
0.011958
0.010908
0.014955
0.020167
0.025366
0.031012
0.031001
0.027119
0.022788
0.018784
0.01217
0.0090224
0.014118
0.020803
0.025059
0.027422
0.027607
0.026619
0.02284
0.017372
0.012332
0.011206
0.014191
0.021297
0.026201
0.019732
0.020365
0.0207
0.010075
0.0099766
0.012036
0.015766
0.015263
0.019691
0.03348
0.036469
0.032182
0.029766
0.023219
0.01275
0.012676
0.0093759
0.011603
0.01524
0.023539
0.0335
0.036884
0.020855
0.015603
0.015096
0.0096918
0.0065443
0.005064
0.024098
0.047152
0.041403
0.039122
0.031533
0.020054
0.016334
0.026645
0.021123
0.022416
0.024182
0.028965
0.035026
0.042599
0.03195
0.02566
0.025495
0.018255
0.011362
0.0091708
0.011075
0.02574
0.025493
0.01755
0.013524
0.010745
0.021242
0.039236
0.040169
0.03779
0.036674
0.036433
0.037087
0.035102
0.032166
0.027604
0.022207
0.016196
0.011745
0.014888
0.020228
0.025748
0.028522
0.029093
0.028067
0.025021
0.020672
0.01462
0.0088762
0.010293
0.015487
0.021348
0.024898
0.025573
0.024333
0.021689
0.018078
0.013446
0.010803
0.014226
0.018934
0.0247
0.028988
0.030216
0.030951
0.030149
0.024771
0.018876
0.013227
0.011999
0.017858
0.023271
0.014732
0.040687
0.053688
0.030727
0.023551
0.018713
0.018968
0.024876
0.025151
0.029792
0.035376
0.031305
0.029189
0.026408
0.020284
0.0158
0.010261
0.0136
0.017517
0.024859
0.028625
0.027908
0.023867
0.022381
0.019937
0.014394
0.0081963
0.0083966
0.0274
0.038853
0.035154
0.034223
0.028818
0.020784
0.012226
0.021701
0.023109
0.022693
0.026394
0.031319
0.033108
0.034803
0.030834
0.031165
0.031341
0.025297
0.014413
0.011307
0.014336
0.020213
0.021892
0.01451
0.011614
0.012514
0.014095
0.014702
0.013171
0.016449
0.018933
0.023764
0.027787
0.029364
0.027811
0.025554
0.025138
0.019797
0.011065
0.010738
0.015924
0.02185
0.025983
0.026965
0.026112
0.02414
0.02072
0.015878
0.0094526
0.0096208
0.014853
0.020658
0.025195
0.027137
0.026964
0.025055
0.021131
0.016275
0.010468
0.012108
0.018596
0.022296
0.025711
0.027672
0.026978
0.026452
0.023201
0.01603
0.0094158
0.0094202
0.01446
0.020342
0.017402
0.01778
0.020827
0.011899
0.013234
0.013936
0.014485
0.019725
0.021413
0.029165
0.034796
0.033909
0.031231
0.024967
0.014297
0.015656
0.013817
0.0098884
0.011838
0.02012
0.031157
0.037349
0.023886
0.020457
0.018765
0.014126
0.010115
0.0083626
0.018412
0.042656
0.040603
0.039827
0.034306
0.024213
0.014008
0.020681
0.013528
0.015857
0.019365
0.024622
0.03215
0.042094
0.032185
0.027199
0.029766
0.024236
0.016484
0.012807
0.010008
0.021788
0.024386
0.018407
0.015524
0.01074
0.013465
0.033048
0.033588
0.033316
0.032234
0.03277
0.034559
0.034065
0.032416
0.029347
0.024696
0.019983
0.01285
0.010883
0.015355
0.02029
0.025436
0.028146
0.028132
0.026795
0.023727
0.019606
0.013282
0.0082841
0.011498
0.017642
0.022775
0.025585
0.026049
0.024261
0.020558
0.017654
0.012174
0.009016
0.014326
0.020961
0.026156
0.027918
0.028197
0.027011
0.024298
0.02059
0.01483
0.010381
0.012801
0.017948
0.014375
0.035011
0.057346
0.033268
0.021856
0.017066
0.013727
0.019356
0.022057
0.02577
0.03401
0.032898
0.030276
0.028274
0.022342
0.019027
0.014576
0.012406
0.015839
0.021778
0.027354
0.02971
0.026224
0.024549
0.02303
0.019816
0.014204
0.0091717
0.019972
0.034154
0.032569
0.03427
0.030653
0.023828
0.013508
0.015908
0.017355
0.017201
0.021875
0.025147
0.028569
0.032694
0.033025
0.033942
0.035823
0.031777
0.021148
0.012123
0.012615
0.01657
0.018079
0.013506
0.013724
0.015028
0.014903
0.015292
0.013127
0.011452
0.015878
0.021329
0.025433
0.02895
0.029231
0.027226
0.024122
0.019696
0.01414
0.0092505
0.011923
0.017355
0.023014
0.026407
0.027138
0.026542
0.024103
0.019355
0.014303
0.0096021
0.013786
0.0177
0.023939
0.029117
0.030122
0.027431
0.024281
0.020923
0.016108
0.011447
0.01486
0.020163
0.026348
0.02955
0.029052
0.027835
0.026637
0.0217
0.01523
0.0095227
0.011338
0.016549
0.015869
0.014123
0.020119
0.010572
0.01242
0.011664
0.012256
0.0076072
0.006872
0.023463
0.032639
0.032732
0.031834
0.028384
0.01663
0.017149
0.021389
0.011325
0.0099955
0.015793
0.026619
0.036231
0.024298
0.019389
0.02108
0.017513
0.013763
0.013505
0.012403
0.036305
0.035885
0.037394
0.033892
0.025235
0.014889
0.021457
0.012098
0.010293
0.015059
0.020822
0.028819
0.041846
0.035243
0.027518
0.03132
0.027539
0.021318
0.01477
0.011424
0.017425
0.023257
0.018772
0.015273
0.011847
0.011207
0.02869
0.027877
0.024114
0.02591
0.026493
0.029588
0.031954
0.032034
0.030346
0.027352
0.022928
0.017605
0.011944
0.012907
0.017188
0.023901
0.0277
0.028727
0.028786
0.026412
0.022961
0.018341
0.010935
0.0093197
0.013505
0.019682
0.024376
0.025866
0.026846
0.025048
0.020614
0.015708
0.0094492
0.0096923
0.014788
0.020913
0.026745
0.029309
0.028602
0.026387
0.023125
0.018597
0.012879
0.012118
0.015181
0.013468
0.03171
0.056811
0.033847
0.020349
0.014304
0.0088243
0.011468
0.017285
0.019695
0.02817
0.030697
0.031049
0.031037
0.026282
0.025011
0.023074
0.015475
0.013161
0.0168
0.023011
0.028352
0.02757
0.027013
0.026389
0.023529
0.018527
0.013779
0.015074
0.030301
0.028902
0.031489
0.030113
0.024297
0.016825
0.014718
0.01763
0.012905
0.014371
0.019439
0.02441
0.030318
0.031536
0.033581
0.037354
0.033843
0.025197
0.015352
0.01058
0.012446
0.015337
0.013272
0.011445
0.012878
0.014991
0.016374
0.014707
0.0129
0.011665
0.015785
0.020476
0.025458
0.028455
0.02822
0.026823
0.022932
0.018565
0.014512
0.013058
0.015409
0.019544
0.024406
0.027509
0.027377
0.025837
0.023583
0.019882
0.014289
0.0099161
0.012132
0.017474
0.023182
0.027037
0.028449
0.026923
0.023815
0.02094
0.016992
0.010287
0.013576
0.019909
0.025716
0.02749
0.027675
0.027997
0.024976
0.020435
0.014416
0.0091594
0.011978
0.012115
0.012987
0.022798
0.011684
0.010388
0.0090171
0.013883
0.015197
0.010821
0.019586
0.027744
0.029173
0.029599
0.028261
0.019228
0.018718
0.024799
0.016437
0.0096147
0.012013
0.022122
0.034211
0.025121
0.019267
0.021648
0.019471
0.01759
0.019399
0.012235
0.031505
0.033547
0.034228
0.034477
0.026695
0.014981
0.017049
0.0071099
0.0043463
0.0081167
0.013607
0.020819
0.034977
0.034918
0.027911
0.032297
0.02959
0.023746
0.019965
0.017501
0.01393
0.019678
0.016414
0.014883
0.01512
0.012302
0.025015
0.025572
0.020222
0.022065
0.024728
0.029436
0.031094
0.035637
0.03362
0.031016
0.027031
0.022164
0.019847
0.019321
0.019111
0.022924
0.027057
0.034941
0.034775
0.029921
0.026348
0.023293
0.018765
0.012313
0.016291
0.016495
0.020612
0.024786
0.025545
0.024396
0.023593
0.021673
0.015938
0.0104
0.0115
0.017205
0.022804
0.027479
0.029016
0.028276
0.025882
0.02199
0.017122
0.010978
0.010676
0.0088026
0.029194
0.058131
0.037061
0.020005
0.013594
0.0091742
0.0058582
0.0083975
0.013278
0.023928
0.027272
0.027996
0.030559
0.02745
0.024984
0.022528
0.016995
0.013473
0.01503
0.019242
0.024749
0.024956
0.026222
0.027044
0.02465
0.021197
0.019709
0.012735
0.024626
0.024739
0.027874
0.0295
0.024241
0.017472
0.012796
0.013058
0.011399
0.010144
0.013546
0.019438
0.025561
0.029643
0.034402
0.04018
0.037863
0.03033
0.022324
0.015454
0.011368
0.0124
0.011822
0.011026
0.0099007
0.011087
0.018057
0.020409
0.016869
0.012877
0.013592
0.01773
0.023596
0.029482
0.032036
0.030838
0.030838
0.023884
0.01752
0.011442
0.011047
0.014939
0.019637
0.024758
0.027682
0.028074
0.026416
0.022971
0.019308
0.013494
0.012316
0.015158
0.019569
0.023893
0.026119
0.026365
0.025938
0.022701
0.017838
0.011302
0.009026
0.013783
0.01869
0.023439
0.026432
0.026763
0.025098
0.021945
0.019846
0.011391
0.010462
0.0081083
0.023035
0.01638
0.01183
0.011927
0.014363
0.015282
0.014461
0.010015
0.019713
0.023176
0.026007
0.028972
0.02294
0.016673
0.027613
0.024757
0.016596
0.011317
0.01468
0.026094
0.027858
0.019169
0.022517
0.023746
0.020764
0.022539
0.024941
0.020282
0.028723
0.02725
0.032379
0.030038
0.021147
0.015604
0.01434
0.016942
0.014553
0.009593
0.014159
0.025227
0.035296
0.029739
0.03234
0.033499
0.028988
0.024586
0.025223
0.018194
0.016014
0.015579
0.015173
0.015014
0.012174
0.015026
0.023664
0.01862
0.015137
0.016095
0.018638
0.022597
0.026419
0.029332
0.029649
0.027952
0.024751
0.021427
0.016264
0.013165
0.015142
0.017895
0.02352
0.028765
0.030615
0.029201
0.027418
0.023621
0.018015
0.010908
0.0089433
0.013468
0.019333
0.023742
0.025507
0.025183
0.023403
0.020123
0.015307
0.0097275
0.011151
0.015914
0.021596
0.026496
0.028375
0.028545
0.02688
0.022438
0.01764
0.010501
0.0088535
0.015509
0.054291
0.047406
0.024241
0.015974
0.011294
0.0086368
0.0078442
0.00785
0.014321
0.022685
0.025668
0.030173
0.030477
0.026344
0.02727
0.022179
0.016816
0.012533
0.014284
0.019072
0.022329
0.024139
0.027567
0.028378
0.026602
0.026396
0.023039
0.016152
0.021343
0.021734
0.026765
0.026492
0.022478
0.012029
0.010822
0.0080043
0.0089695
0.0072285
0.012194
0.018709
0.025974
0.029965
0.036137
0.037442
0.03221
0.026292
0.020731
0.014268
0.010105
0.0072616
0.0060739
0.0098029
0.011447
0.014509
0.021447
0.020364
0.016448
0.011447
0.010408
0.01528
0.020986
0.025696
0.027655
0.027287
0.025277
0.02161
0.017048
0.01053
0.0082538
0.013173
0.019128
0.024251
0.026607
0.026702
0.025116
0.02168
0.017142
0.010757
0.0083923
0.01299
0.018874
0.024088
0.026055
0.02629
0.02554
0.022697
0.018124
0.011682
0.0089634
0.013606
0.019438
0.024891
0.02727
0.027687
0.026291
0.025356
0.019963
0.012872
0.011599
0.011069
0.026997
0.018758
0.014137
0.016965
0.019492
0.019141
0.019835
0.011612
0.014947
0.018996
0.02063
0.026054
0.025032
0.019663
0.030297
0.027771
0.020416
0.014882
0.014202
0.024381
0.025993
0.017533
0.023078
0.02561
0.023126
0.026157
0.02939
0.016322
0.025385
0.024127
0.027927
0.025802
0.020341
0.011672
0.0080547
0.010419
0.012996
0.011889
0.01137
0.021089
0.031809
0.02622
0.030505
0.033822
0.030881
0.0265
0.02764
0.021274
0.014001
0.01109
0.014588
0.015134
0.010699
0.012078
0.021412
0.013667
0.010955
0.011536
0.013357
0.018376
0.022052
0.026253
0.028717
0.028652
0.027179
0.023602
0.018949
0.013559
0.0098588
0.013462
0.019118
0.024675
0.028251
0.029275
0.028692
0.026539
0.022827
0.016529
0.010582
0.011333
0.016245
0.021867
0.025768
0.026253
0.024466
0.021346
0.017801
0.013671
0.0099066
0.013127
0.017815
0.022841
0.026715
0.027911
0.027395
0.024761
0.020998
0.015951
0.01007
0.015182
0.056267
0.055104
0.028729
0.01779
0.012945
0.010785
0.0060603
0.0056992
0.0088153
0.017994
0.020185
0.025169
0.028035
0.027712
0.028454
0.025098
0.020401
0.016042
0.011268
0.014467
0.018065
0.020949
0.026474
0.028093
0.029738
0.027798
0.024363
0.019716
0.020498
0.016978
0.020792
0.021901
0.021681
0.013242
0.0085932
0.0059038
0.0085495
0.0069153
0.0064137
0.012323
0.019732
0.024636
0.034529
0.037503
0.03391
0.029773
0.024033
0.019555
0.013097
0.010176
0.0094642
0.0083773
0.013376
0.019782
0.0253
0.023229
0.0193
0.014754
0.0085
0.010821
0.016537
0.0214
0.025443
0.027431
0.027213
0.025288
0.021762
0.016702
0.010794
0.010129
0.014803
0.020254
0.025219
0.027691
0.027455
0.024642
0.02066
0.016787
0.011743
0.012725
0.017181
0.020801
0.026133
0.028814
0.028794
0.026667
0.022989
0.019564
0.013021
0.011141
0.015724
0.022518
0.024966
0.026534
0.026256
0.024494
0.020833
0.01669
0.010415
0.01
0.029758
0.025653
0.012429
0.01273
0.017292
0.020988
0.023229
0.017768
0.010239
0.017101
0.019943
0.022872
0.023924
0.017881
0.028275
0.031718
0.02687
0.023732
0.015071
0.018948
0.024083
0.017841
0.020213
0.027216
0.027048
0.028093
0.033128
0.018768
0.019544
0.018959
0.024561
0.024032
0.019849
0.0094535
0.0089418
0.0089721
0.010898
0.010959
0.0064484
0.012312
0.025979
0.020588
0.026194
0.033394
0.030205
0.028617
0.031858
0.030529
0.015357
0.0089013
0.0071563
0.0067926
0.0082019
0.008013
0.021156
0.014165
0.0078838
0.0059622
0.0059233
0.01217
0.01817
0.023495
0.027964
0.029546
0.029166
0.028583
0.028281
0.0299
0.027779
0.021962
0.021467
0.027192
0.035255
0.045992
0.067626
0.067959
0.047587
0.052192
0.061261
0.059729
0.055741
0.05465
0.053102
0.047742
0.042075
0.039783
0.044129
0.0511
0.050346
0.044698
0.047253
0.048833
0.052271
0.064181
0.08691
0.095761
0.097572
0.098863
0.10536
0.11108
0.11167
0.10809
0.10269
0.10752
0.10583
0.10946
0.10757
0.14513
0.19408
0.18453
0.15581
0.18353
0.20509
0.2101
0.20144
0.19764
0.21926
0.19558
0.19577
0.20593
0.2027
0.21361
0.22367
0.19286
0.15638
0.13541
0.14944
0.16581
0.17526
0.1915
0.18206
0.16819
0.1547
0.1914
0.22548
0.24437
0.25212
0.25279
0.23347
0.22192
0.23326
0.22647
0.24635
0.28481
0.29894
0.26261
0.24925
0.22197
0.20767
0.20447
0.18486
0.19225
0.20014
0.18659
0.19148
0.21702
0.22766
0.25552
0.32505
0.31555
0.35227
0.33003
0.35508
0.33739
0.29997
0.34183
0.33921
0.33779
0.29801
0.24651
0.24008
0.2912
0.2756
0.23583
0.24577
0.25794
0.28923
0.29052
0.26289
0.20973
0.24756
0.25596
0.21233
0.26081
0.31301
0.27329
0.24973
0.26617
0.26959
0.28781
0.27802
0.25402
0.25392
0.29181
0.27226
0.25708
0.21531
0.26828
0.27781
0.31596
0.32903
0.29789
0.301
0.32103
0.33836
0.3242
0.31576
0.32333
0.3448
0.33815
0.30551
0.35029
0.33562
0.35916
0.37033
0.3833
0.35588
0.31783
0.28907
0.27035
0.26478
0.28145
0.2706
0.25547
0.25106
0.25181
0.24212
0.18643
0.14397
0.16077
0.15999
0.17058
0.2244
0.29365
0.33875
0.31749
0.31655
0.34265
0.34274
0.37244
0.33054
0.3359
0.3535
0.37043
0.37033
0.31505
0.23939
0.23442
0.21659
0.17791
0.14543
0.14369
0.16268
0.17854
0.19892
0.23141
0.29548
0.29945
0.30196
0.25759
0.26475
0.31368
0.27906
0.25547
0.22549
0.1743
0.14232
0.15596
0.13673
0.11382
0.14663
0.19864
0.21149
0.25895
0.29688
0.34103
0.377
0.35755
0.32253
0.30488
0.31512
0.27367
0.28718
0.31006
0.32543
0.30399
0.25154
0.17553
0.10573
0.11058
0.13888
0.13512
0.1819
0.22322
0.19568
0.19861
0.20733
0.18023
0.1164
0.19562
0.25317
0.28835
0.31964
0.37448
0.39253
0.37958
0.35384
0.38353
0.38056
0.35374
0.31267
0.23474
0.17629
0.15694
0.12327
0.12783
0.15017
0.15002
0.15099
0.17678
0.24401
0.25791
0.20373
0.20787
0.25139
0.25118
0.20666
0.23818
0.19834
0.17138
0.18545
0.16432
0.13388
0.10595
0.10724
0.11682
0.13408
0.1639
0.25724
0.3057
0.33244
0.31389
0.31939
0.32068
0.32571
0.29661
0.21468
0.16264
0.14352
0.12605
0.17281
0.21183
0.20776
0.17299
0.16891
0.22528
0.16341
0.20295
0.26061
0.31451
0.32225
0.31282
0.26314
0.28794
0.324
0.29568
0.23913
0.20281
0.21111
0.2296
0.24295
0.18388
0.15749
0.19398
0.1612
0.11985
0.099882
0.086827
0.15843
0.26547
0.26697
0.23567
0.22862
0.28829
0.24964
0.19507
0.2366
0.29584
0.2979
0.32249
0.32446
0.32789
0.36086
0.32818
0.19038
0.16604
0.19938
0.20733
0.19854
0.21096
0.21688
0.28569
0.23468
0.20695
0.25333
0.21646
0.23499
0.25725
0.26117
0.25753
0.19877
0.18306
0.23802
0.28682
0.2824
0.21839
0.1374
0.1011
0.089494
0.092367
0.10395
0.091572
0.11719
0.17276
0.23006
0.21604
0.19508
0.18923
0.206
0.19963
0.18762
0.16
0.17971
0.15162
0.18138
0.16874
0.14495
0.13531
0.14619
0.17298
0.21223
0.23838
0.25707
0.26263
0.25985
0.2435
0.28273
0.30579
0.28912
0.27108
0.31732
0.34873
0.33974
0.26337
0.20985
0.16822
0.12411
0.13695
0.24026
0.29133
0.30282
0.26448
0.29045
0.325
0.33593
0.30153
0.24623
0.24115
0.25218
0.25352
0.20205
0.17608
0.17323
0.19659
0.17737
0.14195
0.13705
0.1897
0.20331
0.19236
0.18452
0.16946
0.17109
0.13677
0.11233
0.17829
0.21768
0.18155
0.15897
0.18529
0.24603
0.28405
0.24501
0.28938
0.35027
0.34875
0.30074
0.22782
0.18967
0.18574
0.18414
0.21249
0.1865
0.19368
0.20374
0.20396
0.19837
0.17081
0.16238
0.2396
0.26011
0.26356
0.26193
0.21301
0.1813
0.19937
0.18956
0.20793
0.18685
0.17731
0.18303
0.14774
0.22455
0.22187
0.19464
0.20071
0.19623
0.17449
0.16313
0.17087
0.13622
0.14655
0.17778
0.17857
0.15082
0.16251
0.28375
0.32485
0.32619
0.31154
0.32095
0.33416
0.33091
0.31795
0.26267
0.18845
0.1232
0.099526
0.095121
0.096066
0.11216
0.1422
0.17367
0.15615
0.1918
0.3078
0.33386
0.35237
0.32751
0.31836
0.27998
0.28977
0.30035
0.25264
0.29201
0.26218
0.20493
0.15681
0.10146
0.074999
0.067796
0.076004
0.09443
0.10884
0.12866
0.16407
0.24397
0.25517
0.24192
0.23326
0.23791
0.31297
0.29059
0.2
0.17154
0.18604
0.20166
0.18814
0.17322
0.21275
0.24766
0.22586
0.21306
0.22069
0.23674
0.23951
0.23046
0.23864
0.24078
0.27191
0.2639
0.26639
0.24946
0.23418
0.25662
0.24896
0.1832
0.14179
0.11919
0.090548
0.090064
0.096954
0.099412
0.094566
0.087729
0.091789
0.099062
0.1523
0.18963
0.1955
0.20546
0.20061
0.23994
0.22065
0.19421
0.25952
0.28634
0.29149
0.2543
0.19095
0.18467
0.24275
0.27092
0.2537
0.25004
0.28317
0.29853
0.28569
0.27006
0.2068
0.14906
0.12076
0.10033
0.12244
0.13579
0.11154
0.11042
0.10526
0.10426
0.089827
0.10061
0.10824
0.16794
0.15564
0.098517
0.12737
0.12987
0.13421
0.16865
0.20059
0.21864
0.21764
0.21297
0.17972
0.18959
0.18733
0.13727
0.17682
0.16703
0.13782
0.1288
0.16371
0.18008
0.16448
0.16334
0.14565
0.14825
0.14159
0.18462
0.1897
0.18696
0.14319
0.18312
0.19288
0.2017
0.16076
0.12963
0.15321
0.17494
0.16275
0.17656
0.1701
0.15518
0.14981
0.13475
0.16677
0.17615
0.17537
0.15253
0.15516
0.15921
0.20152
0.20269
0.16694
0.17371
0.15942
0.13906
0.11194
0.10824
0.11508
0.10073
0.099897
0.1053
0.11253
0.13001
0.14538
0.14694
0.16525
0.18478
0.19538
0.1883
0.26975
0.31097
0.26305
0.24024
0.26761
0.26873
0.26394
0.23883
0.18476
0.14943
0.15589
0.17646
0.20212
0.19443
0.15551
0.14091
0.11368
0.10057
0.073901
0.060146
0.064004
0.060739
0.064837
0.083142
0.11168
0.12589
0.12485
0.12877
0.14377
0.15696
0.14271
0.13066
0.11571
0.12172
0.10355
0.073375
0.067107
0.075162
0.098055
0.13074
0.14575
0.18594
0.20147
0.1678
0.14838
0.18785
0.22632
0.20258
0.16774
0.13599
0.12819
0.14171
0.18379
0.17707
0.13073
0.18188
0.24972
0.23235
0.22173
0.25161
0.26026
0.2791
0.27434
0.18794
0.15278
0.14688
0.16203
0.17359
0.16897
0.20758
0.23747
0.20595
0.18278
0.20735
0.22243
0.21694
0.19607
0.17214
0.16802
0.17391
0.17644
0.15118
0.16767
0.18554
0.16852
0.16058
0.10979
0.12009
0.10991
0.077143
0.088031
0.11557
0.12204
0.118
0.096714
0.071398
0.097585
0.094482
0.080119
0.072422
0.072038
0.064794
0.074594
0.078457
0.090127
0.1096
0.10802
0.11335
0.11007
0.11521
0.18956
0.18524
0.20395
0.20238
0.22739
0.22347
0.18685
0.13996
0.109
0.13821
0.17609
0.20052
0.17426
0.16121
0.17456
0.20734
0.19113
0.23453
0.22664
0.17095
0.12663
0.10944
0.10485
0.1428
0.22559
0.26034
0.22034
0.22277
0.22219
0.21787
0.2492
0.25356
0.25331
0.25081
0.26539
0.27161
0.21295
0.1519
0.10674
0.08832
0.070689
0.074525
0.071805
0.080514
0.07315
0.072716
0.086094
0.10898
0.12671
0.12195
0.10899
0.086225
0.077766
0.10475
0.094965
0.094437
0.10502
0.11844
0.1161
0.10871
0.11137
0.11372
0.1707
0.1939
0.14196
0.17929
0.1062
0.087183
0.083754
0.10318
0.10673
0.092338
0.087785
0.11757
0.1714
0.14536
0.14292
0.15085
0.13934
0.087167
0.1135
0.17156
0.19204
0.17432
0.17752
0.18495
0.16268
0.18191
0.16913
0.17973
0.18533
0.15816
0.12597
0.11813
0.12487
0.12635
0.12057
0.10051
0.088964
0.10212
0.093288
0.099919
0.11934
0.13977
0.15627
0.15962
0.1603
0.18431
0.1974
0.17105
0.16879
0.16537
0.13018
0.11156
0.088534
0.070767
0.095507
0.1398
0.1772
0.17545
0.13579
0.11336
0.16167
0.17576
0.15991
0.13082
0.1373
0.12179
0.11762
0.17398
0.18367
0.15796
0.1252
0.11697
0.10413
0.085153
0.073129
0.08305
0.10294
0.10129
0.09613
0.099021
0.11025
0.12934
0.154
0.1368
0.13766
0.18474
0.14241
0.15437
0.16762
0.15851
0.12991
0.11334
0.10964
0.087961
0.091975
0.097717
0.12219
0.13477
0.12269
0.14939
0.17161
0.13593
0.13156
0.17452
0.17577
0.15537
0.11937
0.1398
0.11218
0.090543
0.086427
0.08473
0.080725
0.099787
0.095131
0.086618
0.096766
0.097155
0.10498
0.15297
0.13931
0.11418
0.13341
0.14013
0.11661
0.13324
0.17188
0.16292
0.17234
0.18934
0.1952
0.14777
0.13117
0.15613
0.16987
0.18702
0.17801
0.19502
0.20067
0.1475
0.18842
0.15537
0.10148
0.094156
0.086971
0.079507
0.083942
0.094788
0.082837
0.095102
0.10548
0.14101
0.13594
0.12713
0.12541
0.11121
0.088999
0.089427
0.081747
0.073476
0.064565
0.0667
0.068273
0.07836
0.099853
0.081777
0.11294
0.11638
0.10553
0.10316
0.11313
0.1399
0.1344
0.12165
0.15464
0.19819
0.17346
0.15744
0.14238
0.11805
0.078323
0.070722
0.066653
0.056517
0.068206
0.085622
0.07775
0.077314
0.080825
0.11244
0.13669
0.1496
0.16934
0.16132
0.17779
0.15724
0.10572
0.080615
0.099439
0.14553
0.17527
0.15716
0.15678
0.18445
0.20499
0.21529
0.192
0.15324
0.11657
0.084026
0.067589
0.072273
0.098677
0.11443
0.11255
0.10221
0.1003
0.11266
0.10728
0.09528
0.10181
0.097029
0.10742
0.10489
0.10616
0.094639
0.10464
0.11826
0.12299
0.11235
0.13783
0.12975
0.12394
0.096637
0.16482
0.17668
0.16755
0.18008
0.19591
0.15628
0.16581
0.17041
0.15887
0.16399
0.17823
0.17139
0.14684
0.13924
0.13189
0.1136
0.12063
0.097331
0.07037
0.088342
0.11278
0.13855
0.17046
0.17124
0.14685
0.11965
0.11142
0.13705
0.13412
0.1936
0.22114
0.15382
0.16003
0.22811
0.23614
0.21375
0.17309
0.095784
0.097696
0.098328
0.10759
0.11294
0.098076
0.096992
0.11553
0.11543
0.11044
0.10743
0.10982
0.093865
0.08976
0.081559
0.091449
0.11101
0.09804
0.078702
0.081667
0.078042
0.086973
0.09423
0.10236
0.12174
0.10313
0.12102
0.12006
0.10346
0.088223
0.082205
0.093243
0.096819
0.097326
0.092873
0.10115
0.098374
0.098496
0.097325
0.098742
0.10297
0.09366
0.089621
0.097927
0.095933
0.098329
0.1067
0.12048
0.099774
0.082774
0.088292
0.11248
0.11635
0.17215
0.17946
0.1431
0.12801
0.14345
0.19263
0.20723
0.18565
0.12568
0.094741
0.10503
0.091535
0.1198
0.13301
0.11041
0.085829
0.08936
0.083201
0.10503
0.16616
0.19212
0.16172
0.15597
0.14943
0.15683
0.16108
0.12751
0.097579
0.10884
0.11925
0.13251
0.13006
0.11115
0.10432
0.085377
0.067288
0.072123
0.094526
0.075041
0.093687
0.11129
0.11538
0.12118
0.1389
0.13487
0.13705
0.15076
0.13952
0.13953
0.14133
0.12217
0.091627
0.11756
0.11858
0.10462
0.15048
0.144
0.12301
0.10958
0.094544
0.08597
0.069213
0.064174
0.065208
0.080232
0.12998
0.14243
0.12
0.14186
0.16433
0.1525
0.13051
0.11049
0.096494
0.11312
0.11445
0.092522
0.11453
0.11677
0.096193
0.080081
0.11528
0.1161
0.19212
0.25068
0.22649
0.20955
0.21431
0.23227
0.21978
0.20231
0.14594
0.13129
0.16824
0.16114
0.13216
0.11185
0.13034
0.18741
0.18609
0.18521
0.16428
0.16218
0.11825
0.095396
0.16937
0.21103
0.15769
0.17089
0.17642
0.20103
0.17959
0.14468
0.13007
0.10586
0.1224
0.13577
0.13266
0.11543
0.10408
0.11196
0.12336
0.10713
0.093981
0.084666
0.086551
0.072261
0.065206
0.06746
0.067921
0.072865
0.074406
0.094898
0.10446
0.11033
0.11439
0.11361
0.12454
0.084115
0.087657
0.091242
0.10369
0.083048
0.092744
0.1027
0.080478
0.060337
0.093939
0.11018
0.10724
0.12652
0.12589
0.097718
0.088091
0.10237
0.13284
0.14313
0.1613
0.20128
0.19312
0.17555
0.16739
0.15471
0.1368
0.15376
0.18454
0.18163
0.17121
0.14174
0.12873
0.11075
0.15274
0.16348
0.15001
0.10851
0.094876
0.092527
0.065847
0.054368
0.069529
0.080731
0.079754
0.0791
0.08548
0.099338
0.11718
0.11758
0.15352
0.19242
0.16512
0.18877
0.20503
0.21194
0.19697
0.16052
0.12213
0.082645
0.057635
0.054497
0.060543
0.065099
0.074277
0.12142
0.16199
0.14237
0.13945
0.12896
0.11625
0.099451
0.10212
0.09964
0.088607
0.093176
0.10713
0.085703
0.085394
0.07979
0.066328
0.071081
0.073908
0.080415
0.086428
0.096133
0.10018
0.083896
0.10532
0.13461
0.1567
0.14873
0.13174
0.13325
0.13063
0.12713
0.13954
0.13026
0.10861
0.151
0.13284
0.11226
0.1183
0.12268
0.15802
0.18606
0.18592
0.14529
0.16803
0.18092
0.19457
0.13449
0.095478
0.094295
0.11619
0.13093
0.11533
0.13194
0.12652
0.10389
0.10324
0.097923
0.076932
0.078563
0.10814
0.11779
0.14148
0.15464
0.15794
0.17038
0.18167
0.14602
0.13101
0.13124
0.12763
0.12405
0.093447
0.074873
0.078347
0.067938
0.052651
0.052816
0.052904
0.054814
0.065454
0.077803
0.11699
0.14064
0.13818
0.12064
0.098611
0.11034
0.12887
0.11153
0.12321
0.10197
0.065012
0.074805
0.053796
0.07149
0.062205
0.062864
0.057331
0.076432
0.073476
0.11511
0.1051
0.11394
0.12955
0.12648
0.089172
0.081372
0.093624
0.10385
0.10245
0.1052
0.13735
0.13202
0.086945
0.084793
0.095253
0.12128
0.18974
0.21287
0.16023
0.17173
0.20412
0.22371
0.20396
0.15125
0.12964
0.11558
0.10054
0.098772
0.103
0.13187
0.13745
0.1395
0.14621
0.12267
0.12828
0.1093
0.12664
0.12474
0.12963
0.12117
0.13758
0.17618
0.19101
0.21802
0.18397
0.12638
0.083211
0.088228
0.084498
0.073585
0.070212
0.077569
0.079413
0.12356
0.16514
0.1303
0.1236
0.12844
0.13226
0.11379
0.10945
0.090146
0.098095
0.10176
0.080736
0.086899
0.08829
0.18851
0.25256
0.24388
0.17451
0.1932
0.22207
0.25214
0.23874
0.19465
0.13974
0.11375
0.1304
0.090525
0.077174
0.073425
0.060016
0.05717
0.08105
0.10715
0.082703
0.094001
0.080775
0.10051
0.13872
0.11225
0.12635
0.1199
0.13254
0.11477
0.15121
0.16349
0.11724
0.084078
0.089004
0.081001
0.10527
0.15125
0.151
0.12132
0.14715
0.147
0.098408
0.074917
0.063574
0.057928
0.06109
0.075466
0.087117
0.076562
0.068119
0.079007
0.080696
0.080102
0.086183
0.092341
0.09868
0.085661
0.096576
0.1237
0.092972
0.10504
0.11973
0.13065
0.13232
0.15455
0.12381
0.10586
0.10952
0.10209
0.10179
0.1102
0.12078
0.13256
0.12866
0.11336
0.15417
0.16321
0.166
0.17145
0.19136
0.18322
0.12637
0.10421
0.089366
0.079976
0.086583
0.076822
0.071311
0.08225
0.090921
0.093861
0.084937
0.087753
0.13332
0.155
0.14473
0.13299
0.093883
0.15006
0.16922
0.18183
0.15006
0.13669
0.11011
0.098519
0.088701
0.076586
0.078371
0.092458
0.12657
0.11337
0.095605
0.099913
0.12925
0.13912
0.11508
0.079072
0.061626
0.057833
0.05376
0.054549
0.05675
0.14171
0.18653
0.14877
0.17135
0.19055
0.19032
0.13416
0.078503
0.068763
0.072057
0.076479
0.094798
0.097296
0.095405
0.10319
0.081374
0.089933
0.16897
0.18475
0.13885
0.15553
0.17795
0.1717
0.13495
0.089572
0.066222
0.060865
0.063561
0.059869
0.06328
0.073905
0.083309
0.084492
0.076251
0.065343
0.077124
0.08292
0.070621
0.077957
0.11938
0.1496
0.13809
0.13847
0.16626
0.14172
0.11164
0.093393
0.082876
0.097452
0.10168
0.11183
0.1063
0.11582
0.11275
0.10742
0.10784
0.1031
0.10184
0.11113
0.10948
0.11733
0.14381
0.19735
0.23759
0.22568
0.23107
0.23585
0.26192
0.26386
0.21538
0.11831
0.065005
0.066201
0.075229
0.07365
0.081651
0.07582
0.06543
0.067466
0.075607
0.07792
0.083732
0.077554
0.065392
0.067541
0.063561
0.06203
0.093925
0.060212
0.066646
0.062797
0.072924
0.089035
0.087856
0.09742
0.14526
0.1367
0.12208
0.10605
0.10404
0.11092
0.10492
0.13515
0.17513
0.13957
0.15359
0.17649
0.17479
0.16428
0.16863
0.14501
0.18177
0.21122
0.18909
0.15393
0.15009
0.1085
0.079597
0.090857
0.11864
0.15201
0.15948
0.14457
0.13633
0.14788
0.14824
0.11885
0.077519
0.079178
0.081806
0.092407
0.11365
0.13513
0.12722
0.11493
0.10999
0.10421
0.10416
0.11599
0.11015
0.10774
0.1127
0.10466
0.10604
0.10789
0.11374
0.096401
0.078019
0.071342
0.095788
0.088151
0.089672
0.082648
0.098725
0.093718
0.099197
0.11119
0.10655
0.094669
0.10226
0.11127
0.084932
0.089981
0.15194
0.15784
0.12319
0.14613
0.19487
0.19148
0.13753
0.10566
0.086301
0.080934
0.068333
0.053404
0.041522
0.051733
0.070602
0.080907
0.087774
0.082915
0.081577
0.10428
0.11752
0.084396
0.085378
0.095041
0.116
0.10983
0.1103
0.18377
0.23742
0.25335
0.28393
0.20497
0.2371
0.22093
0.15065
0.10984
0.10865
0.12451
0.14013
0.13127
0.12381
0.15786
0.13132
0.15534
0.14674
0.1199
0.11667
0.10004
0.082895
0.13287
0.16123
0.16684
0.15432
0.10676
0.10278
0.10095
0.094945
0.095872
0.089603
0.06765
0.067065
0.074147
0.066234
0.081159
0.078558
0.082985
0.072117
0.075052
0.11715
0.10068
0.10957
0.14801
0.12957
0.17234
0.19162
0.14929
0.17331
0.24439
0.24734
0.22051
0.15991
0.10944
0.087472
0.070932
0.10555
0.10766
0.11134
0.10707
0.092117
0.1094
0.11143
0.090366
0.07781
0.05862
0.058219
0.068074
0.068057
0.08142
0.076026
0.0667
0.062447
0.058572
0.070193
0.084857
0.092677
0.10562
0.094731
0.10028
0.14229
0.1425
0.15963
0.1639
0.17748
0.1088
0.1668
0.24014
0.23055
0.19545
0.13283
0.11075
0.094876
0.079168
0.10462
0.12058
0.11155
0.10695
0.11521
0.11686
0.12172
0.10866
0.093003
0.10775
0.14564
0.18155
0.20882
0.17497
0.16379
0.19084
0.20954
0.21314
0.20677
0.14942
0.12226
0.14512
0.16137
0.14669
0.1152
0.069645
0.07404
0.095847
0.08223
0.09017
0.097435
0.084853
0.1044
0.13024
0.11921
0.078747
0.07148
0.070388
0.072362
0.083575
0.083744
0.082643
0.086065
0.077655
0.068455
0.062024
0.055518
0.079522
0.15183
0.15449
0.14578
0.1595
0.16626
0.14646
0.17012
0.17159
0.15404
0.14528
0.14063
0.12898
0.10267
0.078841
0.065039
0.064522
0.069749
0.077611
0.11595
0.13323
0.11974
0.099728
0.090826
0.10265
0.13845
0.11723
0.10973
0.093156
0.090696
0.075931
0.087466
0.077007
0.0783
0.076576
0.076239
0.087089
0.092414
0.091811
0.093224
0.11304
0.13234
0.11267
0.10474
0.11273
0.090836
0.10448
0.18773
0.20202
0.17722
0.18785
0.2512
0.25995
0.21219
0.14933
0.091974
0.07213
0.085389
0.091917
0.12132
0.12012
0.096068
0.09652
0.10775
0.11391
0.10203
0.082788
0.088802
0.13067
0.13984
0.11546
0.094551
0.10587
0.11612
0.11116
0.11641
0.10556
0.084302
0.11123
0.14228
0.13598
0.10367
0.081542
0.078932
0.068327
0.083315
0.072592
0.049904
0.050952
0.070716
0.056546
0.043961
0.049889
0.052429
0.049391
0.049777
0.060278
0.082603
0.099696
0.088695
0.086567
0.11816
0.094292
0.071077
0.066268
0.069111
0.06709
0.07235
0.09659
0.10975
0.16111
0.17312
0.14936
0.15513
0.16447
0.16547
0.12448
0.10969
0.10209
0.090041
0.086376
0.12485
0.14687
0.14216
0.11062
0.10611
0.13535
0.13053
0.10452
0.13093
0.14016
0.12141
0.11458
0.091093
0.090049
0.093963
0.11057
0.11317
0.13091
0.17466
0.21202
0.2166
0.22241
0.23135
0.23439
0.23952
0.22181
0.18705
0.13401
0.11073
0.10983
0.11607
0.090524
0.080491
0.1013
0.11096
0.11142
0.11104
0.11465
0.13209
0.12632
0.12578
0.12617
0.113
0.087226
0.084993
0.070588
0.059318
0.054307
0.058178
0.068796
0.075577
0.089667
0.073326
0.089787
0.093084
0.097329
0.096503
0.099593
0.10228
0.12036
0.11482
0.091451
0.072594
0.081346
0.097856
0.090626
0.078287
0.09434
0.087187
0.061427
0.066758
0.087406
0.071582
0.10531
0.11108
0.11101
0.1059
0.1111
0.12541
0.091132
0.13415
0.12842
0.15056
0.16287
0.19988
0.19386
0.20259
0.2184
0.21199
0.16155
0.10633
0.090343
0.14512
0.18139
0.18285
0.17941
0.19437
0.17963
0.19907
0.18426
0.13239
0.11899
0.11061
0.090805
0.10266
0.091578
0.06743
0.076281
0.086775
0.084238
0.09791
0.10709
0.11462
0.12115
0.11736
0.10086
0.11116
0.12027
0.11833
0.17069
0.1407
0.16685
0.16861
0.13953
0.10246
0.093768
0.10753
0.10308
0.11515
0.12527
0.12021
0.13176
0.11423
0.079859
0.053172
0.065088
0.073951
0.1049
0.12686
0.13278
0.11875
0.11416
0.14561
0.14825
0.11168
0.13734
0.17639
0.17813
0.12435
0.092189
0.076451
0.075837
0.074055
0.082001
0.10236
0.107
0.10564
0.10138
0.11859
0.11561
0.082111
0.052422
0.077592
0.12795
0.20208
0.20619
0.14033
0.15274
0.20101
0.17575
0.12409
0.12441
0.11054
0.12228
0.11755
0.10335
0.10954
0.10409
0.089253
0.095732
0.085337
0.082626
0.090303
0.11039
0.09599
0.083369
0.098267
0.08962
0.093124
0.096768
0.10533
0.11899
0.12463
0.12974
0.13447
0.14106
0.12629
0.15729
0.15948
0.12431
0.14103
0.19475
0.21056
0.16438
0.12743
0.12756
0.10134
0.097161
0.10368
0.10498
0.091378
0.10895
0.093094
0.10155
0.12499
0.12831
0.13026
0.15157
0.15172
0.20155
0.19657
0.16779
0.19606
0.25221
0.20877
0.19667
0.21625
0.17829
0.12306
0.092472
0.068139
0.060737
0.05823
0.062659
0.082653
0.10815
0.15542
0.17314
0.19469
0.19359
0.16112
0.14928
0.18186
0.21481
0.23698
0.19879
0.13482
0.096508
0.079293
0.060121
0.060876
0.069741
0.066987
0.059593
0.054685
0.064103
0.081039
0.090412
0.12302
0.13107
0.1258
0.1059
0.11107
0.13491
0.13944
0.11958
0.098248
0.084765
0.07654
0.083682
0.097426
0.10958
0.11781
0.13046
0.13797
0.16758
0.17779
0.16506
0.15113
0.16479
0.17892
0.20487
0.20222
0.22846
0.2278
0.22991
0.22899
0.18307
0.16002
0.12431
0.11508
0.11981
0.11555
0.11498
0.10136
0.10296
0.089618
0.088857
0.12762
0.1291
0.119
0.10479
0.10053
0.095693
0.11765
0.12115
0.15313
0.19053
0.11902
0.13476
0.12116
0.10097
0.11403
0.15452
0.19169
0.19659
0.22045
0.179
0.14441
0.12997
0.13549
0.12682
0.12535
0.16161
0.18655
0.18571
0.17145
0.14719
0.14786
0.14771
0.13643
0.13281
0.13748
0.13591
0.1318
0.12837
0.15772
0.16991
0.16516
0.16018
0.13219
0.10887
0.094297
0.091448
0.097061
0.10582
0.16546
0.22099
0.22495
0.19687
0.20272
0.21949
0.23636
0.24208
0.21653
0.17542
0.14042
0.13037
0.12373
0.099594
0.076298
0.060266
0.070697
0.077554
0.088697
0.093781
0.087854
0.1019
0.11493
0.12416
0.10895
0.11282
0.15565
0.14495
0.15212
0.15382
0.15627
0.12915
0.11897
0.10234
0.097224
0.11095
0.12937
0.12221
0.078337
0.14353
0.17321
0.17827
0.14525
0.12152
0.11598
0.11116
0.11947
0.11753
0.11911
0.14152
0.18218
0.20765
0.15453
0.11498
0.16046
0.18416
0.15697
0.17645
0.14674
0.19667
0.1886
0.16216
0.15908
0.17786
0.1355
0.12921
0.14116
0.13231
0.13256
0.14529
0.14881
0.13757
0.12734
0.12243
0.17347
0.21558
0.1797
0.17831
0.20978
0.21467
0.18355
0.1357
0.13684
0.13429
0.10926
0.086754
0.071224
0.09614
0.12244
0.12221
0.11712
0.14481
0.14013
0.1539
0.13599
0.10284
0.10896
0.1141
0.10209
0.11569
0.1507
0.1632
0.15873
0.16009
0.16329
0.19368
0.19768
0.16773
0.15761
0.14278
0.14747
0.17221
0.16472
0.15626
0.17561
0.20037
0.17627
0.13682
0.11198
0.10727
0.095469
0.097761
0.098977
0.098772
0.10431
0.13791
0.14202
0.11534
0.12062
0.13676
0.16712
0.13528
0.1677
0.14469
0.16002
0.17284
0.19335
0.14899
0.11912
0.11228
0.10613
0.12608
0.21757
0.25135
0.23416
0.22159
0.23014
0.2596
0.26644
0.19844
0.12768
0.13106
0.152
0.15616
0.18864
0.21375
0.23384
0.15758
0.20826
0.21044
0.20204
0.20178
0.17787
0.13975
0.123
0.13652
0.16323
0.17869
0.16928
0.16081
0.17118
0.15448
0.19249
0.17818
0.16548
0.18893
0.17724
0.15456
0.14946
0.12103
0.075621
0.067451
0.13914
0.19584
0.17128
0.17732
0.19584
0.17594
0.10439
0.13418
0.19167
0.23886
0.21611
0.21644
0.26572
0.26991
0.2466
0.21961
0.16573
0.11573
0.088891
0.085216
0.083363
0.10148
0.097246
0.093072
0.11231
0.13203
0.11834
0.12978
0.12747
0.12913
0.13
0.11501
0.11559
0.12812
0.13327
0.10088
0.082457
0.071102
0.066024
0.086411
0.078009
0.082174
0.081279
0.096414
0.10388
0.15727
0.22035
0.21469
0.19452
0.20062
0.23242
0.22844
0.19369
0.14473
0.12762
0.10615
0.080115
0.068571
0.05021
0.048587
0.061957
0.083268
0.089304
0.10494
0.10924
0.11915
0.1785
0.18249
0.14592
0.14605
0.17264
0.15922
0.15369
0.15491
0.12785
0.11485
0.11005
0.15123
0.15668
0.13757
0.10825
0.098162
0.13496
0.14786
0.13481
0.10217
0.076028
0.068706
0.082665
0.090561
0.12312
0.11421
0.075053
0.10226
0.11847
0.11558
0.10106
0.077513
0.075658
0.083318
0.079267
0.084785
0.08005
0.076013
0.077157
0.080515
0.079726
0.092668
0.086723
0.092224
0.10754
0.12132
0.13887
0.12958
0.12916
0.1365
0.12076
0.11376
0.086455
0.074787
0.07417
0.066352
0.072633
0.096355
0.089676
0.086772
0.084193
0.1119
0.089668
0.10155
0.14597
0.11819
0.099302
0.10571
0.10827
0.12395
0.12239
0.12491
0.13888
0.13617
0.11349
0.14355
0.17033
0.1297
0.12236
0.13207
0.10285
0.13309
0.14207
0.12857
0.13213
0.11043
0.092588
0.090426
0.076113
0.07632
0.13855
0.12916
0.12207
0.11737
0.129
0.10407
0.083637
0.07833
0.077838
0.069505
0.056823
0.051041
0.10981
0.17277
0.16665
0.16417
0.17988
0.17991
0.16062
0.13979
0.12739
0.10201
0.08885
0.078055
0.083363
0.099597
0.11348
0.11136
0.11173
0.1167
0.13117
0.13219
0.13013
0.13242
0.12975
0.11467
0.12245
0.11632
0.09425
0.074251
0.067311
0.051668
0.075956
0.065334
0.060223
0.077932
0.083383
0.081616
0.081097
0.076061
0.082119
0.11856
0.10603
0.095059
0.11673
0.13682
0.12218
0.15808
0.18839
0.181
0.17394
0.16868
0.1839
0.15802
0.14324
0.13319
0.10303
0.094157
0.097566
0.093257
0.084878
0.085361
0.092599
0.096144
0.12101
0.15394
0.15468
0.14281
0.13968
0.12602
0.10638
0.17218
0.19822
0.14828
0.16162
0.20881
0.22907
0.1891
0.13957
0.11634
0.1188
0.12316
0.13371
0.1084
0.098673
0.08087
0.070531
0.06086
0.047398
0.0428
0.041895
0.082428
0.16767
0.1636
0.14551
0.1457
0.17056
0.15226
0.12939
0.1042
0.087981
0.079511
0.097105
0.097847
0.090613
0.078476
0.068168
0.076178
0.070801
0.08499
0.067615
0.066461
0.07457
0.075687
0.071859
0.087658
0.081175
0.077589
0.073006
0.059346
0.053687
0.065102
0.069437
0.076609
0.10171
0.10872
0.10866
0.13805
0.17663
0.174
0.13672
0.1477
0.17574
0.18075
0.14425
0.1161
0.098697
0.10271
0.082322
0.066247
0.07777
0.093892
0.10993
0.12698
0.1259
0.12302
0.12998
0.15158
0.14782
0.13077
0.12201
0.12241
0.095237
0.094907
0.097213
0.12106
0.13168
0.10962
0.12229
0.18614
0.20939
0.18492
0.19338
0.20681
0.21094
0.20014
0.20327
0.17771
0.13003
0.082136
0.067259
0.096104
0.11497
0.097695
0.067301
0.077941
0.10665
0.11697
0.10921
0.10575
0.11702
0.10475
0.075008
0.087335
0.089689
0.082038
0.063739
0.056858
0.065797
0.068475
0.08249
0.074489
0.06243
0.070032
0.055432
0.061235
0.068108
0.08186
0.084834
0.087496
0.084485
0.10366
0.13902
0.1404
0.10664
0.096395
0.1015
0.10848
0.10398
0.10998
0.13353
0.13447
0.1242
0.11993
0.11849
0.12353
0.13299
0.10793
0.10377
0.099296
0.086767
0.079665
0.09503
0.097572
0.096192
0.13449
0.16984
0.14445
0.11621
0.14929
0.1653
0.15544
0.14384
0.10629
0.12268
0.15862
0.16519
0.12233
0.097869
0.098987
0.092404
0.090717
0.099087
0.07103
0.099319
0.1053
0.091163
0.083626
0.08502
0.10047
0.099935
0.092297
0.10481
0.12448
0.14889
0.14254
0.15451
0.15323
0.15143
0.10917
0.077024
0.063328
0.063623
0.061103
0.054972
0.051116
0.067018
0.060517
0.059366
0.052852
0.038946
0.040244
0.039992
0.035824
0.031276
0.042789
0.064375
0.087524
0.10948
0.11032
0.094882
0.12413
0.12662
0.099877
0.13164
0.17228
0.15182
0.11301
0.090457
0.06295
0.048707
0.04795
0.049316
0.049213
0.062301
0.075266
0.087801
0.087799
0.080753
0.089091
0.072954
0.083042
0.067437
0.053448
0.046411
0.056936
0.066413
0.067464
0.063083
0.053824
0.046718
0.041685
0.04506
0.041189
0.02985
0.028163
0.034885
0.044469
0.05162
0.058863
0.060085
0.059026
0.062164
0.058175
0.063718
0.06177
0.07287
0.098639
0.099749
0.090677
0.098722
0.10176
0.11606
0.13784
0.14034
0.12327
0.099268
0.081157
0.07197
0.057721
0.039744
0.034045
0.038656
0.051648
0.065909
0.077884
0.082354
0.081846
0.085498
0.096157
0.099706
0.10273
0.10977
0.079916
0.098871
0.089389
0.07883
0.087229
0.091087
0.086136
0.073367
0.059955
0.03946
0.035466
0.038719
0.045782
0.043799
0.041892
0.04265
0.042614
0.042602
0.042047
0.050743
0.052715
0.044638
0.044584
0.063725
0.072037
0.067078
0.063524
0.059839
0.052942
0.068222
0.090816
0.086644
0.077921
0.081553
0.083374
0.092656
0.08454
0.072712
0.073298
0.060367
0.067282
0.082819
0.090902
0.11046
0.12268
0.16166
0.2033
0.2168
0.19882
0.18499
0.18942
0.18873
0.1711
0.16844
0.16841
0.15536
0.14799
0.16509
0.16313
0.14764
0.13438
0.11206
0.10703
0.10132
0.092378
0.080391
0.06959
0.077059
0.075677
0.073864
0.070169
0.073087
0.059893
0.059359
0.067436
0.084214
0.10116
0.11912
0.10901
0.11054
0.11234
0.12154
0.12706
0.12118
0.11299
0.091774
0.077387
0.057941
0.063305
0.0774
0.079648
0.10384
0.097779
0.091881
0.079341
0.085572
0.10049
0.095626
0.079347
0.071049
0.053198
0.059519
0.056349
0.068592
0.075173
0.06673
0.054541
0.060605
0.059162
0.074081
0.073301
0.078637
0.077423
0.093293
0.097242
0.076844
0.059437
0.061796
0.069358
0.057977
0.052171
0.053054
0.047482
0.046053
0.058775
0.065047
0.058754
0.055492
0.045336
0.056067
0.061535
0.060982
0.060623
0.072316
0.10443
0.11313
0.10825
0.12932
0.12174
0.11568
0.13405
0.11651
0.13664
0.10851
0.12377
0.12622
0.10501
0.094877
0.069352
0.072848
0.089271
0.10028
0.11467
0.10582
0.088426
0.065435
0.094114
0.10395
0.094003
0.074826
0.07074
0.084808
0.071204
0.074067
0.066278
0.066346
0.068541
0.069146
0.060404
0.069845
0.078109
0.078302
0.077416
0.10746
0.10467
0.099073
0.092314
0.082012
0.088089
0.079767
0.091574
0.078674
0.052335
0.044459
0.033768
0.030499
0.031673
0.032036
0.028228
0.035104
0.045594
0.073449
0.079142
0.077258
0.081146
0.079958
0.074632
0.072683
0.075757
0.078904
0.065031
0.051331
0.041002
0.035333
0.04176
0.033222
0.03152
0.03226
0.030174
0.031623
0.026602
0.036347
0.046647
0.053172
0.050438
0.045136
0.038894
0.033174
0.045489
0.04849
0.038169
0.05308
0.045885
0.04652
0.066658
0.069236
0.066508
0.056925
0.044177
0.041766
0.043828
0.041562
0.042028
0.042512
0.040838
0.044642
0.055211
0.055218
0.065669
0.06532
0.053852
0.050888
0.054971
0.056187
0.066525
0.077418
0.07685
0.067716
0.058268
0.057674
0.06015
0.047824
0.043629
0.040107
0.051373
0.050967
0.046092
0.055909
0.058342
0.048652
0.047047
0.037269
0.029769
0.028999
0.035713
0.036609
0.036693
0.034236
0.029476
0.025161
0.025607
0.033271
0.031286
0.041043
0.051648
0.049851
0.046954
0.046566
0.050531
0.057019
0.047795
0.03771
0.042124
0.044528
0.038089
0.045337
0.05348
0.062838
0.071847
0.067438
0.065606
0.10728
0.1213
0.11325
0.098487
0.084309
0.074598
0.079668
0.08291
0.076192
0.067538
0.048689
0.038109
0.031259
0.034499
0.038561
0.042794
0.050406
0.050607
0.045489
0.048408
0.049075
0.041774
0.036364
0.032983
0.035169
0.034647
0.036223
0.044693
0.049163
0.040209
0.03179
0.036722
0.05027
0.058886
0.061624
0.0547
0.055755
0.071534
0.063217
0.038395
0.026252
0.026321
0.025972
0.031237
0.034041
0.032349
0.028941
0.036744
0.052365
0.057835
0.052962
0.054389
0.052994
0.069379
0.084129
0.068948
0.052391
0.040706
0.035347
0.033968
0.024453
0.029368
0.034912
0.034097
0.03876
0.039627
0.038237
0.0356
0.034838
0.032522
0.040507
0.03829
0.035194
0.042496
0.041113
0.040638
0.036882
0.03375
0.031424
0.027732
0.033478
0.035355
0.040706
0.043968
0.045043
0.048214
0.05514
0.090669
0.097649
0.081511
0.066446
0.077894
0.07974
0.078121
0.081807
0.066476
0.046838
0.045068
0.022481
0.016387
0.03919
0.054095
0.048691
0.053766
0.056422
0.062732
0.062322
0.063032
0.050711
0.043132
0.035205
0.027054
0.035039
0.047572
0.046746
0.048883
0.043176
0.039774
0.05232
0.046208
0.033851
0.033381
0.038161
0.039351
0.039426
0.038495
0.036343
0.045732
0.056937
0.05122
0.050967
0.056519
0.04751
0.056759
0.062998
0.052778
0.046225
0.039962
0.033965
0.028752
0.027938
0.030823
0.035844
0.035496
0.034057
0.035485
0.031545
0.025852
0.028367
0.025254
0.018398
0.026521
0.036231
0.048678
0.068544
0.063544
0.052992
0.044401
0.041265
0.037182
0.031411
0.025907
0.026063
0.040927
0.040329
0.035639
0.037175
0.04082
0.044306
0.035897
0.028
0.029151
0.029314
0.045114
0.04823
0.049853
0.046054
0.048646
0.044397
0.039948
0.046029
0.044132
0.028876
0.029816
0.030706
0.03151
0.035978
0.038337
0.040061
0.03139
0.028067
0.035155
0.041692
0.050089
0.042647
0.04056
0.041811
0.0404
0.038175
0.042255
0.059901
0.074256
0.073321
0.065121
0.056855
0.056768
0.055715
0.04345
0.038585
0.045667
0.03826
0.02952
0.03472
